-0.010371,-0.0077402,-0.0092227,3
-0.028201,-0.0064144,0.037989,3
-0.02551,-0.0076199,0.045205,3
-0.027036,-0.008508399999999999,0.016319,3
-0.048464,-0.0078732,-0.023268,3
-0.03346,-0.00012508,-0.033602,3
0.012957,0.0071449,-0.038553,3
0.023192,0.0016764,-0.044579,3
-0.05606,0.0019506,-0.04664,3
-0.092679,0.0080143,-0.026495,3
-0.056985,0.0063532,0.014426,3
-0.015157,0.0075944,0.03903,3
0.11269,0.0056697,0.037425,3
0.16271,-7.32e-05,0.013937,3
0.043254,-0.0044368,0.010057,3
0.042616,-0.0057801,0.020769,3
-0.034395,-0.011435,0.015046,3
-0.13201,-0.023402,0.013764,3
-0.13095,-0.022177,0.01906,3
-0.087953,-0.0063403,0.06650399999999999,3
-0.054929,0.0051481,0.1016,3
-0.035885,0.015109,0.059076,3
-0.010484,0.029996,0.062901,3
0.007898000000000001,0.020623,0.09653299999999999,3
0.20177,0.0033176,0.035303,3
0.3024,-0.0041348,-0.069746,3
0.11918,-0.006827,-0.14376,3
-0.084062,-0.0048725,-0.1441,3
-0.2341,-0.0048245,0.051461,3
-0.16156,0.005339,0.17585,3
-0.086302,0.016132,0.045527,3
0.0072486,0.023745,-0.034656,3
0.24694,0.029103,-0.031479,3
0.22143,0.021133,-0.013134,3
0.014066,0.010011,0.061861,3
-0.055352,0.0049979,0.09331399999999999,3
0.0056325,-0.00088681,0.10377,3
0.056052,-0.009367500000000001,0.097084,3
-0.024506,-0.0060477,0.0098665,3
-0.067299,-0.0060479,-0.043632,3
-0.027203,-0.0031884,-0.013976,3
-0.041428,0.0039503,-0.002689,3
0.060122,-0.0080877,-0.04032,3
0.13509,-0.025417,-0.027856,3
0.012427,-0.013183,-0.054723,3
-0.069605,0.0063971,-0.057207,3
-0.056742,-0.0019151,0.026276,3
0.0044378,-0.012601,0.081083,3
0.15714,0.010662,0.059686,3
0.29415,0.015448,-0.17627,3
0.11374,-0.015813,-0.32098,3
-0.31388,-0.031087,-0.23777,3
-0.33635,-0.025301,-0.09837,3
0.064986,-0.0077408,-0.02482,3
0.26178,-0.0045425,0.045885,3
0.20008,-0.010917,0.10749,3
0.17625,0.0015974,-0.047204,3
0.028439,0.0095989,-0.13514,3
-0.11491,-0.0036815,-0.06876500000000001,3
-0.27393,-0.017668,0.033829,3
-0.26933,-0.012431,0.13584,3
-0.020279,0.0031683,0.15845,3
0.039858,0.0041308,0.10703,3
0.038875,-0.0029219,0.05785,3
0.044563,-0.012519,0.038743,3
-0.013147,-0.0028584,0.050014,3
-0.1845,0.017481,0.062048,3
-0.24469,0.016682,-0.036522,3
-0.10396,0.0080003,-0.11076,3
0.069714,0.010115,-0.072937,3
0.15151,0.035305,-0.14631,3
-0.058571,0.022269,-0.024028,3
-0.18917,-0.008683400000000001,0.24995,3
-0.06999,-0.016097,0.22452,3
-0.12424,-0.0050456,0.078668,3
-0.071993,0.0070673,-0.031701,3
0.26766,-0.004489,-0.17037,3
0.19216,-0.0052308,-0.18681,3
-0.20089,-0.0023026,-0.00868,3
-0.25918,-0.020469,0.16657,3
-0.1004,-0.027167,0.15284,3
-0.037924,-0.00035492,0.088521,3
0.096729,0.019639,0.06333,3
0.36395,0.010955,-0.026894,3
0.24341,-0.028309,-0.016952,3
-0.070173,-0.046696,0.038765,3
-0.13943,-0.0056582,0.026043,3
-0.071935,0.014126,-0.018844,3
0.064332,0.016946,-0.11406,3
0.19202,0.038706,-0.18385,3
0.14021,0.013714,-0.047848,3
0.0010427,-0.008595,0.091505,3
0.0069989,0.02106,-0.052847,3
0.13218,0.06237,-0.19687,3
0.32682,0.07480100000000001,-0.15024,3
0.27556,0.033751,-0.10088,3
-0.051533,0.0083204,-0.14842,3
-0.060833,-0.0036398,0.0060615,3
0.008564,-0.023126,0.07810300000000001,3
-0.14771,-0.016485,0.020185,3
-0.07037599999999999,0.009417500000000001,0.084818,3
0.13797,-0.0077248,0.065595,3
0.018159,-0.024139,0.046275,3
0.080501,0.017818,0.008833300000000001,3
0.3587,0.056154,-0.091699,3
0.22236,-0.0030456,-0.14933,3
-0.18083,-0.06374,-0.059337,3
-0.37665,-0.03184,0.16774,3
-0.32165,0.017938,0.24402,3
-0.077152,0.034399,-0.046348,3
0.051602,0.010409,-0.2755,3
-0.091909,-0.029732,-0.0853,3
0.012656,-0.023829,0.10852,3
0.42723,-0.0017228,0.25481,3
0.41465,-0.016198,0.21079,3
-0.25232,-0.037985,-0.020929,3
-0.52693,-0.029095,-0.14406,3
-0.23437,-0.0031384,-0.19785,3
-0.053341,0.019739,-0.17753,3
-0.10899,0.033436,0.0051683,3
-0.25561,0.029946,0.22028,3
-0.13953,-0.010277,0.24761,3
-0.03729,-0.030867,0.22285,3
-0.10202,-0.024232,0.21735,3
0.15422,-0.017506,0.096426,3
0.21313,-0.029189,0.0043597,3
-0.2133,-0.034998,-0.073131,3
-0.29688,-0.009519100000000001,-0.06517299999999999,3
-0.2051,0.016839,0.0034674,3
-0.18362,0.021411,0.072963,3
0.084964,0.0092563,0.17835,3
0.2046,0.018588,0.14694,3
0.10087,-0.0012574,-0.087878,3
0.16416,-0.005325,-0.35064,3
0.021795,0.013363,-0.44899,3
-0.059528,-0.0056685,-0.27816,3
0.22763,-0.019895,0.22852,3
0.22074,-0.045166,0.42269,3
-0.0014374,-0.048426,-0.029806,3
0.0040927,-0.006914,-0.30856,3
-0.017878,0.045307,-0.24558,3
-0.020574,0.04772,-0.137,3
0.1089,-0.009903,0.067496,3
0.11751,-0.045493,0.039331,3
0.035278,-0.023787,-0.043073,3
-0.069325,-0.0063012,0.02845,3
-0.028295,-0.0088755,0.091849,3
0.084249,0.03696,0.22601,3
0.020531,0.058623,0.25907,3
-0.16901,0.017661,-0.023713,3
-0.0022368,-0.011159,-0.13622,3
0.11401,-0.026722,0.14945,3
-0.2006,-0.012025,0.12185,3
0.046396,0.024092,-0.19691,3
0.41998,0.032818,-0.18082,3
0.039762,0.022486,0.13009,3
-0.10224,0.0059495,0.15113,3
0.045339,0.0048381,-0.090505,3
0.095279,0.051366,-0.09249400000000001,3
0.19088,0.052803,0.010416,3
0.084911,0.010523,-0.07603600000000001,3
-0.23961,0.0099379,-0.25318,3
-0.084244,0.00084614,-0.087107,3
0.34243,-0.008011799999999999,0.25935,3
0.19162,-0.0093125,0.05908,3
-0.14513,-0.027661,0.02824,3
-0.058131,-0.047224,-0.058542,3
-0.0053545,-0.060377,-0.1201,3
0.12474,-0.043629,-0.011141,3
0.25841,0.0061228,-0.077032,3
-0.10951,0.077123,-0.020355,3
-0.28644,0.081608,0.047247,3
-0.059993,-0.028122,0.11501,3
0.076207,-0.047224,0.30683,3
-0.021177,-0.04389,0.25462,3
0.0084463,-0.081759,-0.059924,3
0.12488,-0.049823,-0.22161,3
-0.027823,-0.042705,-0.16435,3
-0.25566,-0.025393,-0.08787200000000001,3
-0.21485,0.058339,0.0041219,3
-0.08085100000000001,0.067912,0.13236,3
-0.24589,0.05361,0.24946,3
-0.07617699999999999,0.026198,0.041282,3
0.20136,-0.025069,-0.13981,3
0.003415,-0.017289,-0.18451,3
-0.23467,0.0026752,-0.027868,3
-0.35447,-0.004827,0.15408,3
0.010637,-0.02862,0.064997,3
0.25155,-0.042061,0.12415,3
-0.069409,-0.013873,0.11216,3
-0.20363,0.06318699999999999,0.041968,3
0.022959,0.10404,-0.13101,3
0.040216,0.053987,-0.28982,3
-0.12247,0.013555,-0.10349,3
0.018715,0.004635,-0.03893,3
0.2333,-0.021091,-0.08198999999999999,3
0.19329,-0.047207,0.13951,3
-0.0081429,-0.030396,0.25833,3
-0.16542,0.055198,0.063265,3
-0.13414,0.07825,-0.14712,3
0.12917,0.037808,-0.18357,3
0.055617,0.018121,-0.10183,3
-0.045271,0.015763,0.088285,3
0.041809,-0.005126,0.0497,3
-0.055362,-0.04031,-0.17711,3
0.070296,-0.054005,0.029007,3
-0.024135,-0.045077,0.052371,3
-0.17689,-0.028734,0.15295,3
0.19445,0.041362,0.22308,3
0.19668,0.011376,-0.11751,3
-0.13213,-0.08637400000000001,-0.085865,3
-0.27373,-0.07362,-0.13698,3
-0.17696,-0.0055138,-0.25516,3
0.086147,0.05311,-0.022117,3
0.44362,0.0090943,0.26802,3
0.39407,-0.037858,0.2144,3
-0.1727,-0.036397,-0.22316,3
-0.25267,-0.028033,-0.2364,3
0.019985,-0.011156,0.027737,3
0.21226,-0.012985,0.19543,3
0.10961,-0.054414,0.20523,3
0.0061387,-0.00046736,-0.050266,3
0.08048,0.08552700000000001,-0.11578,3
0.03108,0.07072199999999999,-0.0054081,3
-0.034736,0.020741,-0.07924,3
-0.1344,-0.032233,-0.27016,3
-0.22112,0.0072914,0.11332,3
-0.086269,0.059272,0.20283,3
0.16858,0.10152,-0.085268,3
0.17833,0.11713,-0.044573,3
0.13347,-0.075241,0.13839,3
0.069817,-0.15151,0.2242,3
-0.16262,-0.044922,0.055894,3
-0.19644,-0.029334,-0.2696,3
0.072642,0.025943,-0.40766,3
0.053105,0.040329,-0.11931,3
-0.059911,-0.014633,0.10226,3
-0.00046641,0.029587,0.25771,3
0.053125,0.046673,0.17714,3
0.094205,-0.013755,-0.059523,3
0.1391,-0.026395,-0.14274,3
0.033444,-0.018278,-0.079889,3
-0.078295,-0.037209,0.19819,3
0.092529,-0.050732,0.31968,3
0.28017,-0.049629,0.021265,3
-0.059608,-0.040122,-0.039679,3
-0.37395,0.00077413,0.14472,3
-0.31584,0.07900600000000001,0.16992,3
-0.034702,0.0745,-0.033825,3
0.38038,0.0010937,-0.49936,3
0.25731,-0.004443,-0.21568,3
-0.14051,-0.0099022,0.4288,3
-0.11629,-0.022759,0.26384,3
-0.0083436,-0.0057077,-0.11888,3
-0.038611,0.020456,-0.21686,3
-0.021448,0.023217,0.0037317,3
0.011127,-0.010242,0.13095,3
-0.064624,-0.026123,-0.027782,3
-0.080904,-0.036551,-0.063084,3
0.1748,-0.032379,0.013922,3
0.22277,-0.01362,-0.040853,3
-0.16343,-0.0026312,-0.037449,3
-0.20464,0.045808,-0.007984099999999999,3
0.02469,0.055729,0.076381,3
0.06833599999999999,-0.0023347,0.023794,3
-0.02344,-0.026536,-0.15381,3
-0.097368,-0.014144,-0.052546,3
-0.11979,-0.024978,0.13726,3
-0.17333,0.0075613,0.29566,3
-0.10127,0.058349,0.049468,3
0.043636,0.014768,-0.1529,3
0.16688,-0.011721,-0.10969,3
-0.06586699999999999,0.015176,-0.071683,3
-0.40433,0.0082632,-0.080097,3
-0.28956,-0.00020507,-0.050342,3
0.0011105,-0.014445,-0.084664,3
0.13704,0.022255,-0.00054775,3
0.0015305,0.063267,0.20075,3
-0.061924,0.03663,0.028604,3
0.22797,0.040121,-0.10457,3
0.23301,0.037588,-0.08290500000000001,3
0.0011058,0.024239,-0.11911,3
-0.07895099999999999,0.016627,-0.056676,3
-0.095752,0.020886,0.16097,3
-0.0082486,0.017246,0.18277,3
0.15345,0.0032246,0.073493,3
0.054855,0.013784,0.07212200000000001,3
0.1369,-0.0015062,-0.032155,3
0.24946,-0.013864,-0.23136,3
0.12511,-0.0076131,-0.29957,3
-0.07630099999999999,-0.001766,-0.053826,3
-0.061364,0.039613,0.16611,3
0.052184,0.038002,0.043605,3
0.25689,-0.0095332,-0.15353,3
0.1228,-0.037083,0.073127,3
-0.098401,-0.034038,0.16697,3
-0.079134,-0.053987,-0.055135,3
-0.040773,-0.051093,-0.09622799999999999,3
-0.046831,-0.051795,-0.074124,3
-0.024144,-0.048277,-0.032318,3
0.074633,-0.009691399999999999,-0.012834,3
-0.037395,0.011022,0.037922,3
-0.03641,-0.016303,0.042114,3
0.21355,-0.04982,-0.0013723,3
0.020043,-0.037666,0.07323300000000001,3
-0.16963,-0.047835,0.20517,3
-0.04874,-0.046865,0.10094,3
-0.11887,0.010547,-0.040431,3
-0.083479,0.022059,0.051511,3
0.167,-0.032939,0.064748,3
0.21331,-0.049579,0.025932,3
0.015941,-0.0043176,-0.052285,3
-0.070927,-0.0013612,-0.12504,3
-0.030495,-0.023704,-0.059928,3
0.042767,0.0086359,0.030265,3
-0.040155,0.047886,0.17105,3
-0.053158,0.02571,0.16883,3
-0.15008,-0.011413,-0.014146,3
-0.038792,-0.008823299999999999,-0.12793,3
0.25907,0.00071082,-0.13451,3
0.030525,-0.010111,-0.023245,3
-0.24506,-0.008193000000000001,0.10953,3
-0.18453,0.011145,0.10548,3
0.16778,0.013962,0.0073507,3
0.21198,0.010864,-0.1266,3
-0.11299,0.010321,-0.16302,3
-0.22099,0.011383,0.07127,3
-0.09597600000000001,0.0083683,0.06873799999999999,3
0.10998,0.012685,-0.10182,3
0.13854,0.011735,0.09315,3
-0.29535,0.0046383,0.097959,3
-0.53583,0.021064,-0.045631,3
0.09929399999999999,0.008242899999999999,0.046663,3
0.60095,-0.029021,0.0012879,3
0.18532,0.0030344,-0.21815,3
-0.1295,0.07499699999999999,-0.08773599999999999,3
-0.11101,0.019383,0.036793,3
-0.064161,-0.042149,-0.057793,3
-0.020485,-0.013005,0.012225,3
-0.0059063,0.016157,0.15596,3
-0.0081203,0.027007,0.045081,3
-0.053726,0.027074,-0.051274,3
-0.07584100000000001,0.023183,0.11363,3
0.14849,0.028203,-0.011549,3
0.20637,0.024659,-0.21968,3
-0.14301,0.015455,0.077414,3
-0.12896,0.017927,0.2438,3
0.2638,-0.014859,-0.034709,3
0.22245,-0.036605,-0.2016,3
-0.099326,0.0001191,-0.21879,3
-0.044966,0.062525,0.08287,3
0.071031,0.070851,0.27146,3
0.05459,0.011224,0.039849,3
-0.0050028,-0.057115,-0.041666,3
-0.07746500000000001,-0.071605,-0.070004,3
-0.11317,-0.0017405,-0.19548,3
0.047223,0.028301,-0.069814,3
0.08185199999999999,0.0037276,-0.09003899999999999,3
-0.054246,0.023937,-0.12183,3
0.00218,0.011965,0.46013,3
0.08136400000000001,-0.0046103,0.29228,3
0.13544,0.012034,-0.28162,3
0.10741,-0.0009781799999999999,-0.3511,3
-0.11532,-0.013696,-0.17493,3
-0.16122,-0.036041,0.043482,3
-0.134,-0.039286,0.082882,3
-0.09848,-0.030353,0.2727,3
0.027706,-0.015838,0.17386,3
0.067999,0.010378,-0.11876,3
-0.0056705,-0.018695,-0.15747,3
-0.11541,-0.024068,-0.032165,3
-0.087481,-0.003349,0.1586,3
0.008676400000000001,0.0027587,0.12357,3
-0.25146,0.014282,-0.025767,3
-0.53589,-0.014938,0.048114,3
-0.076904,-0.044987,0.13093,3
0.69917,-0.044337,0.024195,3
0.40793,-0.02401,0.0697,3
-0.43169,-0.035678,0.21318,3
-0.24388,-0.037102,0.0089452,3
0.026839,-0.039181,-0.12004,3
-0.05013,-0.023612,0.050793,3
0.027053,0.08297,-0.030966,3
0.081066,0.073684,-0.09585200000000001,3
0.0019343,-0.035173,0.0021317,3
-0.018858,-0.028201,0.034516,3
0.17225,-0.0051962,-0.0047424,3
0.30816,-0.010179,-0.10216,3
0.060764,8.7357e-05,-0.15856,3
-0.079211,0.022111,-0.09235,3
0.09209299999999999,0.010447,-0.089368,3
0.13996,-0.034204,-0.22668,3
-0.028732,-0.017796,-0.21569,3
-0.20254,0.044368,0.042519,3
-0.080737,0.068222,0.114,3
0.10245,0.043029,0.06183,3
0.046452,-0.026015,0.033337,3
0.19321,-0.020662,-0.17633,3
0.07775899999999999,0.011293,-0.11255,3
-0.17891,0.04597,0.18797,3
-0.07890999999999999,0.077615,0.1117,3
0.086329,0.06791899999999999,-0.19606,3
0.13538,0.058243,-0.046171,3
-0.0038859,0.011093,0.17753,3
-0.072174,-0.0004833,0.065557,3
0.08737399999999999,-0.026944,0.043739,3
0.08439199999999999,-0.051313,0.20855,3
-0.08462500000000001,0.01158,0.27161,3
0.0058202,0.043884,0.10074,3
0.1632,0.039723,-0.20843,3
0.056478,0.051065,-0.17404,3
-0.015386,0.02928,-0.0025902,3
-0.22747,-0.025683,0.0010434,3
-0.11925,-0.039514,0.10555,3
0.28488,-0.028214,0.052078,3
0.14043,-0.02267,-0.16306,3
-0.10076,-0.033836,-0.36951,3
-0.15213,-0.032407,-0.18702,3
-0.053379,-0.026429,0.30688,3
0.005715,-0.023104,0.35314,3
-0.07867499999999999,0.01983,0.0065031,3
-0.0046196,0.017124,-0.054119,3
0.0046285,-0.014324,-0.18569,3
-0.17512,0.012941,-0.46414,3
-0.094791,0.033413,-0.12023,3
0.14447,0.0015381,0.34768,3
0.12287,-0.060631,0.23786,3
-0.010994,-0.067736,0.088892,3
-0.062356,0.0015047,0.11834,3
-0.032893,0.041912,0.078929,3
0.0046519,0.028913,-0.069352,3
-0.047314,-0.013474,-0.025063,3
-0.056918,-0.025382,-0.020267,3
0.01454,-0.016128,-0.040266,3
0.0013248,-0.010824,0.11489,3
-0.085632,-0.0070248,0.12894,3
-0.16148,-0.019513,-0.0038759,3
0.086453,-9.9045e-05,-0.077935,3
0.26094,-0.0048944,-0.035947,3
-0.03312,0.00016964,0.035313,3
-0.2267,0.0054971,0.050843,3
0.05531,-0.02615,-0.014349,3
0.1929,0.022172,-0.06797599999999999,3
-0.13276,0.06441,-0.06968000000000001,3
-0.24975,0.047535,-0.1225,3
-0.22976,-0.0045516,0.075784,3
-0.052349,-0.016242,0.22879,3
0.25418,0.0065049,0.10947,3
0.20708,0.0019812,-0.04906,3
0.015653,-0.017161,-0.12134,3
-0.028122,-0.017101,-0.048746,3
-0.024976,-0.01864,-0.013057,3
-0.047792,-0.023317,-0.14211,3
-0.08022,0.00015895,-0.0030554,3
-0.040593,0.012212,0.34637,3
0.13202,-0.011735,0.04603,3
0.023088,-0.0051908,-0.24388,3
-0.15177,-0.012015,-0.17312,3
0.12155,-0.042141,-0.031839,3
0.25285,-0.043039,0.063046,3
0.063667,-0.021738,0.065749,3
-0.022066,-0.016129,0.044149,3
-0.087074,-0.016822,0.08368200000000001,3
-0.032676,0.007415,0.0031841,3
0.079051,0.019509,-0.14761,3
0.057315,-0.014397,-0.13478,3
0.032063,-0.032898,0.0037861,3
-0.027893,-0.015078,0.094995,3
0.027389,-0.00489,0.055105,3
0.07616199999999999,0.02287,0.031039,3
-0.0070175,0.025865,0.035562,3
0.022764,-0.009741700000000001,-0.027674,3
-0.0039504,-0.03662,-0.032405,3
-0.24175,-0.021931,0.081764,3
-0.30158,0.060784,0.073584,3
0.37873,0.043968,-0.08852,3
0.49565,-0.041953,-0.039902,3
-0.14977,-0.016529,-0.02613,3
-0.16178,0.022633,-0.022979,3
-0.06437,0.0036253,0.021662,3
-0.010051,0.026433,-0.015399,3
0.062331,0.063638,-0.057396,3
0.015935,0.043198,-0.090809,3
0.0047379,0.019855,-0.037539,3
0.038325,0.008899900000000001,0.08588999999999999,3
-0.065345,0.022882,0.19466,3
-0.20719,0.03725,-0.10858,3
-0.073856,-0.055225,-0.38271,3
0.09976699999999999,-0.020163,0.0095616,3
0.09586600000000001,0.067089,0.30866,3
0.09126099999999999,0.029732,0.037252,3
-0.003604,0.0072665,-0.096888,3
-0.11265,0.00356,-0.022779,3
-0.024534,-0.00038351,0.018138,3
-0.032468,-0.0019211,-0.031759,3
-0.13445,-0.02004,-0.02541,3
-0.053483,-0.027642,-0.035881,3
0.11263,0.012117,-0.074269,3
0.079487,0.02437,-0.027374,3
-0.08615,-0.019915,-0.044536,3
-0.095758,-0.046041,0.1111,3
-0.033279,-0.044826,0.20794,3
0.046397,-0.019986,0.049065,3
0.11074,0.019814,-0.18751,3
0.09397899999999999,0.065584,-0.23264,3
-0.1768,0.057202,0.2068,3
-0.11898,-0.013948,0.18445,3
0.22924,-0.043256,-0.26226,3
0.025521,-0.0042878,0.13724,3
-0.18539,0.0046206,0.26487,3
0.027254,0.00087255,-0.09142599999999999,3
0.072794,0.027034,-0.10005,3
0.001996,0.00030484,-0.035627,3
0.016114,-0.041857,0.082237,3
0.019581,0.0042516,0.08516700000000001,3
0.0018412,0.039128,0.051027,3
-0.084554,-0.022677,-0.003474,3
-0.20854,-0.050561,-0.1987,3
-0.037817,-0.034866,-0.13389,3
0.27369,-0.041092,0.21866,3
0.14489,0.030962,0.10591,3
-0.063665,0.066688,0.022789,3
-0.061253,0.018941,0.03965,3
-0.085548,-0.024597,-0.15071,3
-0.0036932,-0.030881,-0.10046,3
0.054486,-0.022479,0.091671,3
-0.007831299999999999,-0.038043,0.095705,3
-0.010367,0.0031004,-0.05752,3
-0.054219,0.07774499999999999,0.010203,3
-0.08765299999999999,0.074181,0.1546,3
-0.029952,0.012991,0.10235,3
0.12613,-0.017788,0.036942,3
-0.03983,-0.0057779,-0.009648800000000001,3
-0.1489,0.009759500000000001,-0.011695,3
0.14579,0.01107,0.0042948,3
0.12303,-0.00032753,0.022885,3
0.0031178,-0.0093037,-0.12555,3
-0.094667,-0.0075773,-0.25561,3
-0.018238,0.013678,0.088689,3
0.10977,0.024938,0.3152,3
-0.034502,0.01672,0.030762,3
-0.0061406,0.040908,-0.12575,3
-0.0012223,0.023492,-0.064765,3
-0.013022,-0.0363,-0.039515,3
0.016436,-0.082676,0.0017967,3
0.11861,-0.058118,-0.06747599999999999,3
0.23649,0.053413,-0.056254,3
-0.020899,0.087421,-0.0070264,3
-0.27455,0.027432,0.0081835,3
-0.10318,-0.014278,0.10698,3
0.13347,-0.044524,-0.082843,3
0.15141,-0.07169,-0.4804,3
-0.058171,-0.051244,-0.13265,3
-0.14313,0.020964,0.56357,3
0.0037185,0.054287,-0.050779,3
0.08078200000000001,0.03058,-0.41932,3
-0.042324,-0.010902,0.069803,3
0.014827,-0.025851,0.12996,3
0.14582,-0.022985,-0.14526,3
0.023956,-0.06216,-0.069871,3
-0.034341,-0.054827,0.0087946,3
-0.012506,0.0098584,-0.019107,3
-0.029816,0.014718,0.026397,3
0.08953999999999999,0.0037697,0.058287,3
0.10087,0.021658,0.084052,3
-0.08552899999999999,0.045414,0.11989,3
-0.058124,0.046367,0.094402,3
0.09194099999999999,-0.023146,0.011353,3
0.13272,-0.06708500000000001,-0.1403,3
0.053505,-0.087355,0.037369,3
0.019556,-0.08853999999999999,0.28089,3
-0.014787,0.0072872,0.11961,3
-0.082916,0.059788,-0.067995,3
-0.17644,0.07653799999999999,-0.040094,3
-0.11642,0.041769,0.037265,3
0.13935,-0.048617,-0.051307,3
0.0026758,-0.048049,-0.11069,3
-0.11019,0.0042247,0.084064,3
0.14385,-0.0015996,0.089555,3
0.10741,-0.028045,-0.22682,3
-0.11071,-0.021928,-0.13361,3
-0.07116599999999999,0.0075856,0.13476,3
-0.037874,0.018818,0.14323,3
0.019638,0.012997,-0.0061359,3
0.085301,0.0018239,-0.12244,3
-0.052835,-0.010106,-0.10455,3
-0.08282299999999999,-0.022127,-0.10462,3
-0.029572,-0.012316,0.022952,3
-0.020081,0.025005,0.13598,3
0.08679199999999999,0.04343,0.055508,3
-0.014804,0.042453,0.054912,3
-0.07996399999999999,0.027521,0.097334,3
0.034451,-0.0057355,0.033908,3
-0.09167599999999999,0.00221,-0.086079,3
-0.056522,0.047835,-0.067942,3
0.16059,0.00024481,0.023922,3
0.06033,-0.077205,0.020899,3
-0.15562,0.018857,0.057279,3
-0.090085,0.072925,0.06628299999999999,3
-0.028648,-0.0023552,-0.0072685,3
0.011111,-0.045731,0.0017405,3
0.020879,-0.044784,0.049828,3
-0.08051700000000001,-0.0094491,-0.041636,3
-0.13339,0.080759,-0.09928099999999999,3
-0.08121,0.066909,0.056526,3
0.06101,-0.038084,0.06776699999999999,3
0.31376,-0.047326,-0.085229,3
0.099997,0.0052632,-0.092682,3
-0.18685,0.02625,-0.096973,3
-0.05757,-0.020097,-0.056995,3
-0.016702,-0.046086,0.1233,3
-0.040607,-0.026404,0.22568,3
0.011519,0.0055325,0.17465,3
-0.053179,-0.009798100000000001,0.007058,3
-0.021291,0.026375,-0.20214,3
0.20238,0.068256,-0.21629,3
0.17216,0.027548,-0.07871400000000001,3
-0.10968,-0.0059341,0.076964,3
-0.17025,0.01326,0.18134,3
-0.063858,-0.00020174,-0.10252,3
0.14002,-0.039886,-0.41431,3
-0.024439,-0.039843,0.09613099999999999,3
-0.23856,-0.028596,0.34331,3
0.095723,0.017388,-0.035313,3
0.23929,0.041747,0.0063013,3
0.019963,0.008003100000000001,-0.030606,3
-0.09639300000000001,0.006763,-0.18047,3
-0.026596,0.004584,-0.12002,3
0.07238799999999999,0.0013988,0.08518199999999999,3
0.0035495,0.0075907,0.073738,3
-0.0075477,0.038633,-0.038855,3
0.030209,0.033649,-0.027242,3
0.031938,-0.040723,-0.076803,3
0.051239,-0.052418,0.041078,3
0.058667,-0.016065,0.1886,3
0.0081435,0.01812,0.069356,3
-0.036105,0.032199,-0.0025143,3
0.05072,-0.0097768,0.0094565,3
0.07778400000000001,-0.037999,0.037064,3
-0.0069911,-0.032689,-0.10975,3
-0.010873,-0.033581,-0.17264,3
-0.1092,0.019882,0.082704,3
-0.19923,0.033933,0.028715,3
0.0039455,-0.042625,-0.13643,3
0.2197,-0.07846,-0.017832,3
0.011025,-0.043888,0.022662,3
-0.14834,0.047111,0.071071,3
0.038359,0.07051499999999999,0.07023600000000001,3
0.041047,-0.0079334,-0.019081,3
-0.046155,-0.061373,-0.1405,3
-0.06023,-0.0040712,-0.16657,3
0.01704,0.059897,-0.089709,3
0.090209,0.060651,0.12191,3
0.11364,0.053143,0.23511,3
0.17852,0.051,0.01433,3
-0.03587,0.019664,0.0047087,3
-0.27427,-0.056484,0.09414699999999999,3
-0.12827,-0.066325,0.074783,3
0.19662,0.03255,-0.024773,3
0.24197,0.093042,-0.07968500000000001,3
-0.010747,0.091755,0.04516,3
-0.10228,0.058204,0.045779,3
-0.066675,0.019953,0.010527,3
0.0026126,-0.069872,0.19427,3
0.060357,-0.13044,0.23507,3
0.040594,-0.015676,-0.0056019,3
-0.052377,0.06682200000000001,-0.09765500000000001,3
-0.082453,0.021581,-0.1162,3
-0.016938,0.0032125,-0.032297,3
-0.040929,-0.011367,0.099555,3
-0.071572,-0.026776,0.078607,3
0.049417,-0.029012,-0.032565,3
0.12573,-0.037873,-0.06500499999999999,3
0.031899,-0.0091103,-0.013228,3
-0.012612,0.0071114,0.031863,3
0.015306,-0.0050079,0.022343,3
0.053812,-0.0021909,-0.044976,3
-0.047818,-0.056798,-0.12811,3
-0.047955,-0.046234,-0.04697,3
-0.018888,0.022715,0.09402199999999999,3
-0.03713,0.025368,0.050856,3
-0.036837,0.0093781,-0.098122,3
-0.06306,-0.0041334,-0.17319,3
0.030184,-0.031816,-0.12324,3
0.018378,-0.037019,-0.09378300000000001,3
-0.071617,-0.029004,0.078815,3
-0.033497,-0.016017,0.17255,3
0.11495,0.0019977,0.045163,3
0.048963,0.004429,0.013725,3
-0.31144,0.015019,0.043894,3
-0.28836,0.0016993,-0.14044,3
0.15151,-0.040658,-0.15911,3
0.14602,-0.06653000000000001,0.09958,3
0.050683,0.011892,-0.020268,3
0.07423,0.10865,-0.017381,3
-0.07296900000000001,0.031279,0.038695,3
-0.059111,-0.031249,0.032174,3
-0.010928,-0.017579,0.14134,3
0.0011196,-0.020038,0.0032041,3
0.030779,-0.017097,-0.17938,3
0.01363,0.00017111,-0.10016,3
-0.020159,0.009642100000000001,0.22665,3
-0.029304,0.022188,0.20898,3
0.0053506,0.019349,-0.13937,3
0.14507,0.0026321,-0.2467,3
0.13982,-0.006401,-0.010419,3
-0.06487999999999999,-0.021161,0.13429,3
-0.045758,-0.022858,0.019972,3
-0.0013765,-0.003031,-0.12508,3
-0.0046349,0.046433,-0.10849,3
-0.029174,0.042401,0.15078,3
-0.043461,0.0012215,0.033499,3
0.11182,-0.012426,-0.098915,3
0.074556,-0.006404,-0.011331,3
-0.053129,0.011299,0.045077,3
0.058283,-0.016719,0.0026573,3
0.030573,-0.011112,-0.12067,3
-0.089325,0.038211,0.006483,3
-0.042408,0.046954,0.056157,3
0.02277,0.011632,-0.31796,3
0.06418699999999999,0.0046088,-0.21541,3
0.09129,0.0075133,0.30702,3
0.037118,0.012872,0.17717,3
-0.00062317,0.014838,-0.018447,3
-0.066066,-0.020195,0.062117,3
-0.083458,-0.034352,-0.034533,3
0.009450099999999999,0.0066685,-0.11478,3
0.049144,0.033897,0.035787,3
-0.038822,0.01389,0.03418,3
-0.019385,0.0030255,-0.123,3
0.11339,-0.0056626,-0.072308,3
0.09667100000000001,-0.0013342,0.20878,3
-0.0063808,0.038454,0.15851,3
-0.078488,0.021646,-0.0054672,3
-0.057593,-0.052808,0.055059,3
0.008096799999999999,-0.088061,0.0077086,3
0.02446,-0.015376,-0.008397699999999999,3
-0.015788,0.06496,0.028203,3
-0.041768,0.018836,-0.0088924,3
0.018478,-0.027598,-0.027617,3
0.044513,-0.039337,-0.026491,3
-0.02728,-0.057216,-0.0012886,3
-0.062551,0.003468,0.063765,3
-0.081862,0.055465,0.064503,3
0.079067,0.0028402,0.010163,3
0.039485,-0.054407,0.06689100000000001,3
-0.059699,0.010967,0.080888,3
-0.053248,0.09064700000000001,-0.064472,3
0.0274,0.044895,-0.083661,3
0.0664,-0.011182,-0.012909,3
-0.15216,0.019961,0.071586,3
-0.12821,0.021064,0.099175,3
0.069826,-0.071216,-0.0059308,3
0.021168,-0.06319900000000001,-0.040852,3
0.029396,0.040216,-0.0076683,3
0.095248,0.053118,0.022933,3
-0.07111099999999999,0.029897,-0.016226,3
0.020703,0.038275,4.4497e-05,3
0.0788,0.0028687,0.011363,3
-0.018001,-0.029619,-0.043292,3
0.0054092,-0.025441,-0.030333,3
-0.0067678,-0.017298,0.0054059,3
-0.053171,-0.0004476,0.015008,3
0.081412,0.042787,0.073515,3
0.14086,0.05381,0.009722,3
-0.032898,0.025368,-0.12854,3
-0.028358,-0.028354,-0.06368600000000001,3
0.025971,-0.048883,0.081203,3
0.008858,-0.017348,0.08773,3
0.0028334,-0.026427,-0.041266,3
0.052831,0.0008293,-0.076456,3
0.0234,0.025142,-0.010233,3
-0.080427,0.028978,-0.00073319,3
-0.14256,-0.00058613,0.067871,3
-0.15347,-0.012115,0.18762,3
-0.029613,0.01695,0.0036818,3
-0.022619,-0.025687,-0.1596,3
-0.048342,-0.047777,-0.015886,3
0.18378,-0.030923,0.076402,3
0.24373,-0.036504,0.11606,3
-0.14775,-0.042154,-0.02462,3
-0.1995,-0.048955,-0.21891,3
-0.021289,-0.026759,-0.22531,3
-0.036756,-0.011459,-0.10792,3
-0.066747,-0.035204,-0.0073322,3
-0.0028256,-0.029267,-0.018564,3
0.082608,0.027032,0.16498,3
0.075028,0.098859,0.1659,3
0.07769,0.048977,-0.11708,3
0.08469599999999999,-0.044676,-0.1744,3
-0.010536,-0.052406,-0.15097,3
-0.042695,-0.021879,-0.15482,3
-0.013801,-0.0048469,-0.10321,3
0.079446,-0.0010743,0.090725,3
0.06932099999999999,0.012182,0.11598,3
-0.0043612,0.02505,-0.010055,3
-0.020997,0.036538,0.022146,3
-0.085881,0.025928,0.08957,3
-0.11406,-0.010408,0.072074,3
0.11928,-0.021336,-0.0022463,3
0.16794,-0.003879,-0.009464200000000001,3
-0.10581,0.012311,0.041492,3
-0.11274,0.021113,0.031658,3
0.11268,0.011067,0.021043,3
0.098717,0.0036293,0.041291,3
-0.04809,0.015718,0.031063,3
-0.053203,0.02553,0.0074338,3
-0.016727,0.0020334,-0.010207,3
-0.057056,-0.016961,-0.047087,3
-0.02613,0.014,0.022748,3
0.06822599999999999,0.033161,0.088897,3
0.088383,0.024549,0.036281,3
0.015898,0.01996,0.028818,3
-0.049088,0.015804,-0.017268,3
-0.018143,0.0073797,-0.028504,3
0.07765900000000001,-0.006616,-0.03287,3
0.009876599999999999,-0.024763,-0.01748,3
-0.089044,-0.01018,0.00073418,3
-0.068828,-0.0012753,-0.007801,3
-0.027509,0.0020154,-0.01467,3
0.12303,0.036102,0.049857,3
0.07201299999999999,0.012072,0.11955,3
-0.075319,-0.057698,-0.0041517,3
-0.021932,-0.038371,-0.077399,3
-0.0052557,0.014105,-0.046034,3
-0.07402599999999999,0.015726,-0.037606,3
-0.10792,0.018921,-0.00067345,3
0.017902,-0.0085813,0.07870000000000001,3
0.065108,-0.02692,0.07428800000000001,3
0.051286,-0.0008974,-0.02271,3
0.08137999999999999,-0.0076286,-0.0064994,3
-0.0037274,-0.020812,-0.0059658,3
-0.1046,-0.010387,-0.025711,3
-0.094197,-0.0029224,0.012431,3
-0.009783,-4.5622e-05,0.012554,3
0.10422,-0.007094,0.033153,3
0.072059,-0.016589,0.050226,3
-0.015854,-0.0074724,0.0071638,3
-0.026396,-0.0030095,0.013732,3
-0.053579,0.0076816,-0.04161,3
-0.1167,0.0078447,-0.048587,3
-0.034393,-0.019911,0.028126,3
0.15105,0.0044603,-0.062255,3
0.14171,0.008936599999999999,-0.18299,3
-0.047893,-0.017822,0.011175,3
-0.073057,-0.016829,0.15302,3
0.014115,-0.0069868,0.049088,3
-0.038252,0.01642,0.08315,3
0.0046092,0.024155,-0.056444,3
0.040523,0.025808,-0.11317,3
-0.033387,-0.0012213,-0.016423,3
-0.04186,-0.017313,0.044562,3
-0.005215,-0.016289,0.023561,3
-0.072281,-0.00059266,-0.060135,3
-0.10153,0.029637,-0.069103,3
0.08534600000000001,0.043084,0.09019000000000001,3
0.11217,0.038812,0.14709,3
0.10173,0.02913,0.024011,3
-0.0011591,0.033841,-0.023042,3
-0.079984,0.011406,0.0046346,3
0.051216,-0.039041,0.042327,3
0.011506,-0.030216,0.018259,3
-0.091888,0.010862,-0.0020487,3
-0.0094176,0.017759,-0.0010688,3
0.015427,0.0077196,-0.036566,3
-0.018596,0.0079428,-0.096665,3
0.062165,0.0035402,-0.072729,3
0.10475,-0.011924,0.074347,3
0.038544,-0.024605,0.10444,3
-0.010616,-0.033204,0.044062,3
-0.07746,-0.0041879,0.037028,3
0.03284,0.0063674,-0.19636,3
0.11127,-0.024227,-0.24977,3
-0.036567,-0.028546,0.07205,3
-0.01729,0.0046614,0.14792,3
-0.0040202,0.0089967,-0.00033972,3
-0.01248,-0.012393,-0.11134,3
0.0077448,0.00046992,-0.072342,3
0.00020041,0.028952,0.1246,3
-0.025056,0.033878,0.15871,3
-0.0061003,-0.0060598,-0.038861,3
0.058182,-0.0010086,-0.27697,3
0.056778,0.030237,-0.16586,3
0.032979,0.015943,0.20654,3
-0.033534,-0.01542,-0.09404700000000001,3
-0.12248,-0.030278,-0.20188,3
-0.020796,-0.024341,0.32938,3
0.098412,-0.0075168,0.093498,3
0.0058074,-0.023941,-0.18309,3
-0.079475,-0.040254,-0.0055807,3
-0.07201200000000001,0.015398,-0.017089,3
-0.0025186,0.050934,-0.082189,3
0.0095707,-0.0016337,-0.073486,3
-0.11846,-0.037002,0.050657,3
0.010996,-0.039518,0.13742,3
0.17067,-0.025987,0.091582,3
0.035974,0.0096361,0.079611,3
-0.08354,0.009249,-0.13724,3
-0.15281,-0.0077946,-0.1405,3
-0.068131,0.004995,0.1077,3
0.12369,0.010428,0.10424,3
0.044798,0.016416,0.017305,3
-0.041081,0.019355,-0.0044439,3
-0.020403,-0.010416,0.022038,3
-0.067512,-0.03943,0.042649,3
-0.046113,0.0085475,0.035155,3
0.008280600000000001,0.036673,-0.012738,3
-0.0006165,0.022497,-0.039835,3
0.12235,0.0086794,-0.015259,3
0.022006,-0.012508,0.031402,3
-0.080277,-0.0023561,0.027918,3
-0.014692,-0.0030629,-0.0032544,3
0.018207,-0.0015407,0.026379,3
0.014392,0.0040096,0.040479,3
-0.029392,-0.0076722,-0.0026183,3
-0.021165,-0.0045715,-0.059291,3
-0.0081274,0.010176,-0.052077,3
-0.016687,0.011447,0.021387,3
0.026324,0.00050743,0.080786,3
0.083039,0.0052129,0.040937,3
0.060271,0.014282,-0.028178,3
0.009268200000000001,0.011604,-0.049396,3
0.049877,0.003239,0.015634,3
0.033583,-0.0071055,0.04358,3
-0.062491,-0.0030809,0.0034783,3
-0.032293,-0.0038199,0.0032022,3
0.0054133,0.0068175,-0.062915,3
-0.037861,0.023783,-0.08043599999999999,3
0.041431,0.0050355,0.089086,3
0.098915,-0.0055593,0.061216,3
0.020613,-0.00071843,-0.03401,3
-0.0063932,0.00069067,-0.014444,3
-0.017365,0.0014731,-0.010957,3
-0.089599,0.0025367,0.022478,3
-0.10935,0.0080727,0.043969,3
0.029987,0.0059589,-0.043062,3
0.07265000000000001,-0.003495,0.0064069,3
0.0081051,-0.0058196,0.06930500000000001,3
0.031051,-0.0067623,-0.065692,3
0.026507,0.014354,-0.044179,3
0.036055,0.031115,0.0067376,3
-0.012763,0.0034842,0.013997,3
-0.0949,-0.0054418,0.075381,3
-0.021299,-0.010706,0.039048,3
0.038692,-0.028551,-0.07230300000000001,3
0.075668,-0.015393,-0.037292,3
0.044542,0.015952,-0.0061183,3
-0.013253,0.021772,0.0057629,3
-0.030087,0.015547,-0.015343,3
-0.014895,-0.0015394,-0.0042805,3
0.039813,-0.062987,0.077808,3
0.02533,-0.088143,0.039972,3
-0.07577100000000001,0.021781,-0.076797,3
-0.13,0.044908,-0.071672,3
0.052902,-0.038056,-0.040372,3
0.097321,-0.012668,-0.12953,3
0.0069596,0.009398999999999999,-0.15415,3
-0.012801,-0.028441,0.09829499999999999,3
-0.059271,-0.044198,0.19854,3
-0.085424,-0.032097,0.017279,3
-0.0039335,0.023375,-0.06274200000000001,3
0.08605,0.030196,-0.064485,3
-0.0060916,-0.022587,0.0040609,3
-0.07184400000000001,-0.013517,0.090332,3
0.032126,0.02542,0.039207,3
0.065509,0.015871,-0.073712,3
0.025371,-0.011336,-0.067256,3
-0.010867,-0.013903,0.034209,3
-0.031664,0.010575,-0.019101,3
0.010821,0.012337,-0.08766599999999999,3
0.02838,-0.001654,0.10011,3
0.00085741,0.020371,0.21231,3
-0.09883500000000001,0.02664,0.02896,3
-0.07247099999999999,0.014139,-0.079431,3
0.060641,0.0011549,-0.092181,3
-0.01014,0.0067513,-0.15963,3
0.052857,0.022119,-0.0086842,3
0.071688,0.0073959,0.17583,3
0.0057667,-0.0004376,0.06568599999999999,3
0.013647,0.01324,0.0011816,3
-0.025674,-0.0023171,-0.07660500000000001,3
-0.018594,-0.012503,-0.056853,3
-0.026846,-0.0036615,0.14094,3
-0.027457,0.0057017,0.14581,3
-0.059933,0.016609,-0.06812,3
-0.046114,0.01177,-0.26126,3
0.054493,-0.008844299999999999,-0.29405,3
0.090407,-0.035579,0.15714,3
0.063306,-0.025056,0.36359,3
-0.0074351,0.029177,0.034718,3
-0.057258,0.04396,-0.060142,3
0.012166,0.039487,-0.033525,3
0.032766,0.025145,0.0022437,3
-0.035791,-0.0043407,0.008386599999999999,3
-0.0077526,-0.037932,-0.1939,3
0.0086731,-0.080942,-0.14399,3
0.029838,0.0028234,0.26727,3
-0.01946,0.08394600000000001,0.06490700000000001,3
-0.09247900000000001,0.050148,-0.13478,3
-0.040787,0.018043,0.052451,3
0.075415,-0.0015471,0.0057931,3
0.09177,-0.044486,-0.015502,3
-0.045074,-0.039904,0.014314,3
-0.082542,-0.0032545,-0.012829,3
-0.01057,0.0061814,0.050509,3
0.061051,0.0083988,0.065104,3
0.012444,-0.0013098,0.018966,3
-0.082534,-0.00077845,0.0038827,3
-0.037536,0.007137,-0.0026453,3
0.082631,0.026383,-0.0085919,3
0.065416,0.0064591,-0.01009,3
-0.085744,-0.07642699999999999,0.015804,3
0.00061287,-0.088368,-0.055406,3
0.10208,0.044563,-0.01644,3
-0.0094641,0.083938,0.09217599999999999,3
0.0032977,-0.011031,0.02083,3
0.056166,-0.03102,-0.0040792,3
-0.052846,0.014976,0.00033178,3
-0.11847,0.0075612,0.0065532,3
-0.02067,-0.030903,0.029067,3
0.12709,-0.046109,-0.04348,3
0.13891,-0.039608,-0.19306,3
-0.006563,0.032543,-0.077609,3
-0.062762,0.044099,0.17294,3
-0.07489700000000001,-0.025467,0.079304,3
-0.035129,0.0011079,-0.040792,3
0.024649,0.02597,-0.014713,3
-0.001944,-0.022243,0.008681299999999999,3
0.014424,-0.022754,-0.012624,3
0.04154,0.0080617,-0.020042,3
-0.027838,-0.0061343,0.009185499999999999,3
-0.08451699999999999,-0.021447,0.044426,3
0.026643,-0.0052626,0.023456,3
0.050994,0.0039509,-0.020521,3
-0.06215,0.0087966,-0.0070351,3
-0.11544,0.021976,-0.020578,3
0.061686,0.026055,-0.07634000000000001,3
0.053497,0.021372,-0.037298,3
-0.070286,0.024359,0.070544,3
0.013887,-0.010352,0.021387,3
0.055379,-0.029756,-0.051862,3
-0.031901,0.016486,-0.020778,3
-0.022093,0.021681,0.045177,3
0.023165,0.0012291,-0.072145,3
0.00028528,0.006423,-0.1628,3
-0.0075263,-0.027312,0.0058142,3
0.013666,-0.066077,0.10787,3
0.023628,-0.024569,0.030602,3
0.030227,0.049567,-0.009589800000000001,3
0.016555,0.032786,0.019721,3
-0.020037,-0.020713,-0.06403200000000001,3
-0.055762,-0.020295,-0.14758,3
-0.017677,-0.015723,-0.041213,3
0.031645,-0.039323,0.14516,3
-0.018009,-0.030807,0.13451,3
-0.089949,0.00344,0.059153,3
0.08436299999999999,0.00018473,0.09288200000000001,3
0.13367,-0.020188,-0.0024717,3
-0.07727100000000001,-0.0095499,-0.18536,3
-0.04126,0.00057655,-0.20721,3
0.009824299999999999,0.0064058,0.10592,3
-0.050509,0.036264,0.20212,3
-0.01452,0.060375,-0.0009913299999999999,3
-0.021111,0.068462,-0.054015,3
0.015097,0.031368,0.014269,3
0.14529,-0.0015831,0.08068400000000001,3
0.06001,0.028863,0.024175,3
-0.089256,-0.0095239,-0.024321,3
-0.027182,-0.08925,-0.026261,3
0.026542,-0.01922,-0.044363,3
-0.0024846,0.048892,-0.033168,3
0.012803,0.031828,0.021855,3
0.09751600000000001,0.019135,0.043616,3
0.032157,0.0040667,0.023913,3
-0.09411799999999999,-0.011483,0.011915,3
-0.095568,-0.013782,0.0089958,3
-0.0146,-0.0096121,0.01542,3
0.08111400000000001,-0.0035571,0.019548,3
0.081049,-0.018507,-0.0064579,3
0.00076127,-0.031267,-0.018247,3
-0.019115,-0.032542,-0.013635,3
0.013277,-0.009405500000000001,-0.03817,3
0.013734,0.027857,-0.018757,3
-0.011521,0.047971,0.055317,3
-0.016392,0.015575,0.014945,3
0.023895,-0.013625,-0.038787,3
0.025502,-0.014998,0.02074,3
-0.023288,-0.019729,0.062574,3
-0.019818,-0.004513,0.028201,3
-0.0068207,0.0093127,-0.013574,3
0.037451,0.01937,-0.033555,3
0.003393,0.036217,0.027518,3
-0.052986,0.023,0.049295,3
0.004129,-0.0053533,-0.013553,3
0.011365,-0.020589,-0.033413,3
-0.0011164,-0.040587,-0.013417,3
-0.0031283,-0.057432,0.10121,3
-0.020889,-0.0020238,-0.024627,3
-0.058053,0.11294,-0.13041,3
-0.03056,0.059509,0.12204,3
0.038156,-0.063973,0.12097,3
0.049388,-0.049658,-0.13556,3
0.0072715,-0.0050491,-0.32427,3
-0.014776,0.0010679,-0.28222,3
0.014709,0.0005965,0.21985,3
0.00040889,0.0033064,0.25232,3
-0.07273300000000001,0.0031645,0.067965,3
-0.085067,-0.0061443,0.015354,3
0.031098,0.01482,-0.13853,3
0.093155,0.042463,-0.074166,3
-0.0091746,0.00027872,-0.063139,3
-0.18346,-0.015611,-0.052801,3
-0.1744,0.0023966,0.055827,3
0.19748,-0.0048033,0.080849,3
0.1898,-0.014558,0.044147,3
-0.040146,-0.00035721,0.031937,3
-0.06727900000000001,0.0042704,0.02608,3
-0.079886,-0.011688,0.0072962,3
-0.021616,-0.0048546,-0.017104,3
-0.008710300000000001,-0.00025498,-0.020868,3
0.025338,-0.012052,0.020323,3
0.038157,-0.022645,0.040947,3
0.031506,-0.007017,0.0030518,3
0.033321,0.032254,-0.043124,3
0.0011186,0.011113,-0.1176,3
-0.069578,-0.041673,-0.033465,3
0.037569,-0.036063,0.13603,3
0.11646,4.1931e-06,-0.039199,3
0.00085909,0.025512,-0.11117,3
-0.019151,0.025375,0.054859,3
-0.022404,-0.0069436,0.055138,3
0.0014086,-0.0067925,-0.0093971,3
0.0010873,0.008437800000000001,-0.024603,3
-0.077152,0.014274,-0.0086053,3
-0.056335,0.022746,0.013239,3
0.09870900000000001,0.017297,-0.022677,3
0.048794,0.01032,-0.099857,3
-0.06256200000000001,-0.045186,-0.044842,3
0.0063376,-0.060332,0.13468,3
0.038604,0.038094,0.088394,3
0.0051108,0.064846,0.07914599999999999,3
-0.055542,-0.0076709,0.058026,3
-0.07462100000000001,-0.0064408,-0.085207,3
0.12565,0.0029082,-0.11093,3
0.14361,-0.0061555,-0.027329,3
-0.06790599999999999,-0.011408,0.070409,3
-0.069006,-0.017068,0.092599,3
-0.023911,-0.028381,0.056896,3
-0.019589,-0.0099083,0.011613,3
0.015352,0.016024,-0.02813,3
0.053792,0.0076261,-0.18189,3
0.057868,-0.010545,-0.12541,3
-0.01681,-0.025795,0.20641,3
-0.045951,-0.015875,0.10829,3
0.037465,-0.0030799,-0.1224,3
0.029154,0.004257,-0.059771,3
-0.078375,-0.00095585,0.069312,3
-0.02083,-0.010346,0.033348,3
0.026808,-0.0011359,-0.058959,3
-0.079221,0.020726,-0.040428,3
-0.06963800000000001,-0.0012153,0.035505,3
0.11975,-0.0072921,0.055462,3
0.1339,0.020714,0.07442600000000001,3
-0.027679,-0.0051506,0.059676,3
-0.067215,-0.018346,0.025845,3
-0.048794,-0.0031004,-0.017802,3
0.013669,-0.001822,-0.072641,3
0.042141,-0.00049764,-0.034787,3
0.053621,0.0028581,0.024463,3
-0.018367,-0.0052869,0.11954,3
-0.14077,-0.0095774,0.10637,3
0.017144,-0.0088266,-0.037344,3
0.12213,0.01327,-0.11164,3
0.066398,0.067273,-0.040787,3
0.043922,0.070273,0.015615,3
-0.025215,0.043617,-0.03255,3
-0.043783,0.010063,-0.0028004,3
-0.029721,-0.024399,0.008519499999999999,3
-0.074861,-0.049243,-0.022142,3
-0.08766400000000001,-0.027023,-0.010269,3
0.010076,0.060522,0.0080337,3
-0.021926,0.035759,-0.030709,3
0.045779,-0.014648,-0.077764,3
0.079434,-0.023445,-0.053944,3
-0.064586,0.0071419,-0.042874,3
-0.057097,0.049692,0.011545,3
-0.11117,0.020422,0.097943,3
-0.07541399999999999,-0.002226,-0.13349,3
0.051307,0.023348,-0.20399,3
0.039722,0.027374,0.26908,3
0.0057394,-0.066118,0.21132,3
0.08085000000000001,-0.086988,-0.092471,3
0.059013,0.0034411,-0.11849,3
0.0135,0.016166,-0.22217,3
-0.011792,-0.024062,-0.099902,3
-0.05281,-0.017646,0.15608,3
0.012372,0.040962,0.1639,3
0.037181,0.05967,0.011108,3
0.0017104,-0.013974,-0.053744,3
0.0020646,-0.082223,-0.031699,3
0.073891,-0.054944,0.008352999999999999,3
0.061284,0.007851500000000001,0.0021092,3
0.0057554,0.03505,0.0074816,3
-0.058463,0.0032282,0.068983,3
-0.10375,-0.0069662,0.12737,3
0.0029913,-0.0010468,0.12128,3
0.0048083,-0.03698,-0.048504,3
-0.11255,-0.053272,-0.074363,3
0.038594,-0.011173,-0.069273,3
0.16382,-0.0016395,-0.12395,3
0.019311,0.010501,0.058124,3
-0.06727900000000001,0.04764,0.16776,3
-0.018891,0.022833,0.07210999999999999,3
0.013892,-0.015334,-0.02855,3
0.047397,0.013426,-0.008294599999999999,3
0.044877,0.029489,0.03307,3
-0.06293899999999999,-0.0062298,-0.0043008,3
-0.05238,-0.012049,-0.028833,3
0.13724,-0.011321,-0.086921,3
0.10742,-0.02457,-0.08168,3
-0.041544,-0.016683,0.02704,3
-0.014165,-0.0078124,-0.011108,3
0.075262,0.021838,-0.11848,3
-0.034172,0.037692,0.09774099999999999,3
-0.07906299999999999,0.0051697,0.12777,3
-0.024905,-0.023645,-0.078502,3
0.028773,-0.018689,-0.046611,3
0.030521,-0.012002,-0.012337,3
-0.007079,-0.0085761,-0.0061011,3
-0.041938,0.0033674,-0.014094,3
-0.036503,0.014591,-0.022422,3
-0.064664,0.010568,0.10009,3
-0.15412,-0.019195,0.09207700000000001,3
-0.0018301,-0.024161,-0.12332,3
0.14669,0.0085083,-0.15902,3
0.085657,0.033765,0.098286,3
-0.072517,0.0019522,0.15325,3
-0.11696,-0.020031,-0.11726,3
-0.09341000000000001,-0.031779,-0.12311,3
-0.078262,-0.022743,0.12456,3
0.059097,0.0052961,0.08994099999999999,3
0.049891,0.018068,0.03346,3
0.06760099999999999,0.050505,0.043638,3
0.088695,0.034304,-0.064584,3
-0.024392,-0.014267,-0.013064,3
-0.069372,-0.012133,0.06525,3
-0.08670700000000001,-0.02357,0.047357,3
-0.028582,-0.037906,-0.033209,3
0.12963,0.009912199999999999,-0.096607,3
0.10886,0.053791,-0.0017856,3
-0.038932,0.047059,0.21812,3
-0.086615,0.064253,0.20071,3
-0.019819,0.040054,-0.063012,3
0.053561,-0.020127,-0.080065,3
0.09260500000000001,0.004887,-0.079721,3
-0.07230200000000001,0.0065293,-0.051924,3
-0.031532,-0.07122000000000001,0.059708,3
0.059534,-0.07301100000000001,0.080579,3
0.015359,0.047766,0.017048,3
0.052453,0.086399,0.0034066,3
0.0048201,0.033891,-0.071117,3
-0.024413,0.0026172,-0.21783,3
-0.047083,-0.0010173,-0.20498,3
0.04556,0.013812,0.20144,3
0.12995,0.016586,0.16822,3
-0.0038925,-0.0094596,-0.24568,3
-0.056642,-0.064266,-0.08303000000000001,3
-0.0040397,-0.10199,0.095363,3
0.020481,-0.012111,-0.031064,3
0.043401,0.036784,-0.061974,3
-0.013964,-0.0081703,-0.038912,3
-0.088921,-0.0093864,-0.11187,3
-0.049419,0.0031231,-0.10978,3
0.094199,0.009003799999999999,0.084735,3
0.042837,0.043906,0.17072,3
-0.07548199999999999,0.051674,0.011113,3
-0.07907599999999999,-0.016972,-0.087186,3
-0.11787,-0.056397,0.009485499999999999,3
-0.0065879,-0.052805,-0.046277,3
0.11095,-0.01717,-0.2057,3
0.08808000000000001,0.013022,0.17306,3
0.074117,0.014173,0.26988,3
0.017123,0.015304,-0.022183,3
-0.024784,-0.00078186,-0.03379,3
-0.10399,0.013696,-0.079887,3
-0.064031,0.013279,0.010904,3
0.12559,-0.011692,0.10381,3
0.045203,-0.0036081,-0.027458,3
-0.033662,-0.0029551,-0.06743200000000001,3
-0.059827,0.016113,0.028778,3
-0.13781,0.048203,0.020371,3
0.096238,-0.008936299999999999,0.053446,3
0.1118,-0.064357,0.017434,3
-0.087336,-0.0088387,-0.075392,3
-0.057833,0.026567,0.0021666,3
-0.086815,-0.013699,0.1334,3
0.014477,-0.026837,0.024169,3
0.13513,0.010546,-0.14085,3
-0.052751,-0.0047592,0.021034,3
-0.11459,0.022168,0.2009,3
0.05025,0.013005,-0.05728,3
0.0047569,-0.042704,-0.22234,3
-0.027067,-0.011998,-0.00053961,3
0.0231,-0.009663100000000001,0.06954399999999999,3
0.06403300000000001,-0.036062,0.068534,3
-0.021986,-0.035304,0.054476,3
-0.10991,-0.015195,0.031371,3
0.09956,0.014998,0.08548,3
0.23458,0.025368,-0.019334,3
-0.034041,0.0094322,-0.11785,3
-0.11752,0.020199,0.13947,3
-0.013693,0.019478,0.11724,3
-0.038253,0.0041367,-0.14737,3
0.040999,-0.016857,0.014521,3
0.016059,-0.032464,0.09708899999999999,3
-0.098594,-0.007181,-0.015697,3
-0.072466,0.01629,-0.06253499999999999,3
0.050359,0.0045501,-0.10139,3
0.11537,0.025888,-0.010318,3
0.011741,0.023068,0.11941,3
-0.069137,-0.019805,0.029002,3
-0.028159,0.005489,-0.061509,3
-0.005613,0.010137,-0.018476,3
0.019159,-0.0092233,0.0038851,3
0.049266,0.00020932,-0.12776,3
0.025759,-0.0053049,-0.18988,3
0.015121,-0.012718,0.058835,3
-0.013817,-0.017854,0.11288,3
-0.011808,-0.019571,0.030491,3
0.08867899999999999,0.026611,0.04678,3
0.060667,0.045437,-0.038873,3
-0.008064200000000001,0.005912,-0.010658,3
-0.014853,-0.023369,-0.0016898,3
-0.037486,-0.027428,-0.054163,3
0.011287,0.014236,-0.14697,3
0.022223,0.024786,-0.10461,3
-0.0011309,-0.011514,0.18459,3
-0.045936,-0.010656,0.15172,3
-0.12686,-0.014574,-0.012351,3
-0.058476,0.0072024,-0.0098786,3
0.12826,0.05715,-0.015265,3
-0.042059,0.059911,-0.10465,3
-0.085978,0.044079,-0.14219,3
0.10427,0.01077,0.15594,3
0.10541,-0.060818,0.12817,3
-0.10357,-0.073459,-0.19274,3
-0.29422,-0.042382,-0.14066,3
-0.050107,0.037796,0.040894,3
0.21681,0.09836399999999999,0.2424,3
0.16309,0.018911,0.08595,3
-0.062462,-0.011786,-0.21555,3
-0.13716,0.011426,-0.070396,3
0.023146,0.00053297,0.037362,3
0.11715,-0.062873,-0.0305,3
0.08225,-0.080498,0.046534,3
0.024985,-0.0098916,-0.0080727,3
-0.08720799999999999,0.034212,0.025212,3
0.015357,0.023734,0.14041,3
0.05093,0.0031398,0.031184,3
-0.22429,0.027757,-0.070631,3
0.0025876,0.03018,-0.0026039,3
0.29229,-0.0053845,0.14152,3
0.044751,-0.016348,0.12998,3
-0.16118,0.0076439,-0.040883,3
-0.13156,0.043644,-0.10542,3
-0.049499,0.07797999999999999,-0.12768,3
0.053816,0.039859,0.032578,3
0.11283,-0.022245,0.10668,3
0.028891,-0.071802,-0.077581,3
0.053897,-0.049308,-0.07177600000000001,3
0.026851,0.0071261,0.12537,3
-0.094323,0.0035662,0.057275,3
-0.053319,0.0065719,-0.055723,3
0.027518,-0.00081073,-0.069845,3
0.078096,-0.016629,-0.094613,3
0.0013716,-0.008292600000000001,-0.0052724,3
-0.0035475,0.034679,0.026284,3
0.08273800000000001,0.031302,-0.0054305,3
0.036622,-0.032681,-0.077649,3
-0.00073616,-0.069438,0.016644,3
0.054319,-0.037419,0.17519,3
-0.11811,-0.051205,0.072463,3
-0.31132,-0.018979,-0.09535399999999999,3
-0.053938,0.020958,-0.23196,3
0.24125,-0.00718,-0.0076617,3
0.15352,0.029922,0.31424,3
-0.05952,0.044416,0.14102,3
-0.079885,-0.0055895,0.032608,3
0.040785,-0.036819,-0.010254,3
0.04003,-0.017841,-0.11312,3
-0.078435,-0.012145,-0.19455,3
-0.061361,0.0020819,-0.1085,3
-0.025776,0.012316,0.0063843,3
-0.026111,-0.009744299999999999,0.049611,3
0.08167099999999999,-0.016596,0.11904,3
0.099704,-0.013185,0.036868,3
-0.0076881,-0.003538,-0.03027,3
-0.073999,0.0044291,-0.044214,3
-0.062976,0.0053115,-0.038456,3
0.044602,0.0069695,-0.036587,3
0.074806,0.00094735,-0.030258,3
0.0090487,0.00066184,-0.0037553,3
-0.11598,0.008551599999999999,0.036891,3
-0.1327,0.0066988,0.048071,3
0.059844,-0.00040806,0.0042712,3
0.11438,0.0055494,0.013984,3
0.016577,0.015447,-0.014821,3
-0.047797,-0.0020271,-0.06591,3
-0.079236,-0.0016335,0.07536900000000001,3
0.017567,0.012964,0.11494,3
0.024242,0.013104,0.0075983,3
-0.008171899999999999,0.013366,-0.044247,3
0.03608,-0.010604,-0.012068,3
0.037149,-0.023032,0.044268,3
-0.059179,-0.014868,-0.012738,3
-0.10958,-0.0037227,-0.012173,3
0.024455,0.012629,0.01767,3
0.071785,-0.0026775,-0.0096095,3
0.03965,-0.010938,-0.046741,3
0.030222,-0.001657,-0.1356,3
-0.015323,-0.014949,-0.079125,3
-0.028138,-0.02164,0.13926,3
-0.026088,0.0084516,0.078429,3
-0.018228,0.023268,-0.071364,3
-0.015562,0.018744,-0.055807,3
-0.030582,0.0029342,-0.022195,3
0.012315,-0.035807,0.031563,3
0.12099,-0.034692,0.08100599999999999,3
0.10524,0.012229,-0.015299,3
-0.049666,0.036769,-0.0033284,3
-0.016156,0.033175,0.03823,3
0.087615,0.012194,-0.06582300000000001,3
0.007903800000000001,-0.013665,-0.053937,3
-0.088529,-0.0018062,0.028913,3
-0.033377,0.022852,0.11602,3
0.10197,0.015244,0.046148,3
0.10963,-0.0083867,-0.016473,3
-0.048322,-0.017046,-0.011671,3
-0.053109,-0.0066973,0.014191,3
-0.025889,0.0058849,0.056006,3
-0.059453,0.017322,0.02381,3
0.045805,0.037344,-0.014915,3
0.10858,0.023653,-0.051719,3
-0.001124,-0.0018167,-0.039416,3
-0.025558,-0.0058898,-0.010103,3
-0.015169,-0.025045,-0.024464,3
-0.0015417,0.008374100000000001,0.051407,3
0.01588,0.017277,0.042895,3
-0.057371,-0.016923,-0.006281,3
-0.18611,0.011673,-0.013089,3
-0.092765,0.05998,-0.056852,3
0.16771,0.099595,0.17594,3
0.19148,0.1019,0.050392,3
0.016941,0.023094,-0.26815,3
-0.16122,-0.041055,-0.10238,3
-0.15321,-0.021284,0.099443,3
-0.033423,-0.059832,0.099616,3
0.06548900000000001,-0.054827,-0.011237,3
0.09075800000000001,0.060946,-0.053274,3
-0.01912,0.067066,-0.12475,3
-0.10547,0.019294,0.048586,3
-0.019699,-0.024109,0.19697,3
0.033792,-0.059916,0.018876,3
-0.08079,-0.030801,-0.14936,3
0.03492,-0.008773400000000001,-0.35998,3
0.15361,-0.042865,-0.11061,3
0.0382,-0.06447799999999999,0.3121,3
-0.091228,-0.045357,-0.035629,3
-0.066484,-0.04841,-0.036373,3
0.045403,-0.040847,0.17057,3
0.039411,-0.034685,-0.030193,3
-0.013155,-0.025811,-0.12125,3
0.033997,-0.010177,-0.06159,3
0.020386,-0.007514,-0.0042198,3
-0.07940700000000001,-0.004274,0.036072,3
-0.1437,-0.0058033,0.10432,3
0.020881,0.00025839,0.078596,3
0.18097,-0.011721,-0.033274,3
0.003707,-0.011486,-0.01613,3
0.0085483,0.041391,0.004727,3
0.032698,0.09386,0.0019604,3
-0.10997,0.025483,0.11628,3
-0.070729,-0.056964,-0.076433,3
0.064721,-0.057657,-0.14117,3
0.06290800000000001,-0.034733,0.18116,3
0.0051605,0.03955,0.1548,3
-0.0026618,0.06328400000000001,-0.073268,3
-0.013206,0.017597,-0.096264,3
0.015268,-0.0053588,-0.031648,3
0.036455,-0.0042607,-0.013075,3
0.051722,-0.01637,0.049382,3
0.031853,-0.017339,0.013479,3
-0.066236,-0.010876,-0.087684,3
-0.09765699999999999,0.015667,0.013069,3
0.093447,0.022113,0.089147,3
0.15706,0.0076874,0.030268,3
-0.030623,0.023394,0.016974,3
-0.083758,0.033759,-0.010189,3
-0.055913,0.009461900000000001,-0.037862,3
0.0093235,-0.0017886,0.07599499999999999,3
0.039216,0.015925,0.10401,3
0.029479,-0.023995,-0.096791,3
-0.037335,-0.059517,-0.021344,3
-0.066895,0.0039338,0.1407,3
-0.024165,0.038993,0.0074241,3
-0.0082133,0.037246,-0.036451,3
0.019261,0.042375,-0.014905,3
0.026991,0.0026423,-0.04393,3
0.035833,-0.026135,0.0030638,3
0.044916,-0.010091,0.039787,3
-0.0008004,-0.008248699999999999,0.048035,3
-0.034487,-0.011656,0.011901,3
-0.074404,-0.0044087,-0.029947,3
-0.1498,0.00030685,-0.039616,3
0.045922,-0.0067141,-0.054608,3
0.18111,-0.018632,-0.019628,3
-0.08094899999999999,-0.014297,0.062638,3
-0.047059,-0.0040001,-0.0025986,3
0.1094,-0.010114,-0.0063589,3
0.047932,-0.032165,0.027309,3
-0.045912,-0.0051491,-0.10443,3
-0.11037,0.03258,-0.12497,3
-0.029114,0.019576,0.0029438,3
0.0065351,0.028433,-0.046674,3
-0.040307,0.037664,-0.11979,3
0.036933,0.053597,0.12535,3
0.10557,0.07174899999999999,0.18448,3
0.03989,-0.020472,-0.047639,3
-0.037593,-0.080183,-0.067777,3
-0.024508,-0.01114,0.027937,3
-0.035371,0.0041645,0.03585,3
0.014927,-0.012883,-0.02309,3
0.033099,0.027425,-0.069857,3
-0.019071,0.052333,-0.010435,3
-0.050547,0.047835,0.08520999999999999,3
0.027795,-0.015801,0.031416,3
0.09547600000000001,-0.08454,0.035033,3
-0.024796,-0.080443,0.020702,3
-0.02911,-0.023072,-0.08330700000000001,3
0.058475,0.044027,-0.1732,3
0.075527,0.01427,0.046661,3
-0.04134,-0.043025,0.2407,3
-0.059411,-0.048444,0.017559,3
0.044565,-0.014918,-0.072904,3
0.024623,0.0010557,-0.073008,3
0.036206,-0.001564,-0.04238,3
0.059302,0.00035917,0.089172,3
-0.015341,-0.011362,0.054126,3
-0.048963,0.0071319,-0.13436,3
-0.045177,0.03625,-0.18444,3
0.037691,0.063497,-0.037599,3
0.00012997,0.04338,0.066228,3
-0.26386,-0.019644,-0.0071893,3
-0.16543,-0.023798,0.13799,3
0.21919,0.001405,0.091207,3
0.20569,0.0044151,-0.08305,3
-0.024238,0.008518,-0.011223,3
-0.08883199999999999,0.01817,-0.055587,3
-0.050974,-0.00020812,-0.24439,3
-0.033565,-0.010878,-0.025165,3
-0.049482,0.012458,0.1894,3
0.0049649,0.021589,0.06671199999999999,3
0.1009,0.0020973,0.010057,3
-0.0080173,-0.011038,0.06488099999999999,3
-0.0027258,-0.01109,-0.020594,3
0.03154,-0.019746,-0.16842,3
-0.052095,-0.016966,0.033847,3
0.060074,-0.020749,0.12462,3
0.1278,-0.017573,0.038016,3
0.020969,0.016038,0.033106,3
-0.050182,0.026362,0.036097,3
-0.044872,-0.0082275,0.016805,3
-0.14552,-0.030223,-0.023307,3
-0.13049,-0.02283,-0.07491200000000001,3
0.09471,-0.0015744,-0.10112,3
0.12494,0.00062405,0.17881,3
0.066021,0.0008221,0.29026,3
-0.055675,0.014108,-0.05869,3
-0.095571,0.0032351,-0.12137,3
0.027955,0.0023742,-0.0026112,3
0.036253,-0.015495,-0.023096,3
-0.09051099999999999,-0.043413,-0.032631,3
0.059116,0.010101,0.011651,3
0.035836,0.045892,0.024087,3
0.020525,-0.0074513,-0.00067725,3
-0.012337,-0.009624000000000001,0.07743899999999999,3
-0.060961,0.024239,0.1032,3
0.063948,-0.0021863,-0.04728,3
0.08139299999999999,-0.00019585,-0.089474,3
0.027126,0.045654,-0.026714,3
0.013006,0.034743,-0.17732,3
-0.059597,0.030773,-0.13765,3
-0.14658,-0.028275,0.2198,3
0.025458,-0.041616,0.13093,3
0.14425,0.0045681,-0.088418,3
0.046882,0.004597,-0.1459,3
-0.057486,0.018437,-0.030082,3
-0.020404,0.013601,0.11218,3
0.026759,-0.0060303,0.023023,3
-0.051078,-0.008888800000000001,-0.0073942,3
-0.020135,-0.0048762,0.02199,3
0.025308,-0.009442000000000001,0.018511,3
0.008366699999999999,-0.017356,-0.032357,3
-0.1033,0.016849,-0.082567,3
-0.084968,0.025414,-0.0065718,3
0.088133,0.0019672,0.12946,3
0.051123,0.032076,0.10458,3
-0.026557,0.06252199999999999,-0.00937,3
-0.0019101,-0.027186,-0.019514,3
-0.002851,-0.11006,0.0044845,3
-0.02599,-0.042101,0.01287,3
-0.043975,0.036775,-0.19309,3
0.018517,0.045095,-0.2503,3
0.028615,0.033349,0.37658,3
-0.012487,0.021157,0.2733,3
-0.012759,-0.0033231,-0.2906,3
0.022051,-0.033637,-0.15392,3
0.026844,-0.04834,0.052266,3
-0.0067032,-0.021978,-0.0084996,3
-0.008425800000000001,0.0086196,-0.035606,3
0.033034,-0.00012538,0.015261,3
0.03433,-0.027831,-0.0060402,3
0.016026,-0.037616,0.0073591,3
-0.025976,-0.020268,0.027488,3
-0.07227699999999999,8.370299999999999e-05,0.018171,3
-0.025045,0.00091229,0.028028,3
0.065872,0.013712,0.028862,3
0.07284400000000001,0.019688,-0.017182,3
-0.0037251,0.0011282,-0.038634,3
0.053382,-0.002359,-0.023935,3
-0.016862,-0.0055367,0.020882,3
-0.11287,-0.011053,0.09382,3
-0.033725,0.0013535,-0.020924,3
0.007744,0.021522,-0.11812,3
0.01051,0.00079248,-0.046359,3
-0.00089381,-0.017298,-0.091423,3
0.06542000000000001,0.0055274,-0.046595,3
0.12475,0.0044434,0.15019,3
0.037853,-0.019826,0.10571,3
-0.091465,-0.02839,-0.014748,3
-0.050233,0.014269,-0.048309,3
0.057836,0.034057,-0.11439,3
0.014742,-0.0006425,-0.20671,3
-0.027011,-0.0037053,0.012791,3
0.013431,0.010323,0.20005,3
-0.0034199,0.0064621,0.073361,3
-0.011736,-0.0036072,0.0010266,3
-0.020048,-0.0039794,-0.039868,3
-0.029372,0.014523,-0.03983,3
0.028839,0.022368,0.0042586,3
-0.013239,-0.012101,-0.00020687,3
-0.17128,-0.03131,0.0055612,3
-0.16109,-0.010852,0.019748,3
0.10248,0.023751,0.050676,3
0.056159,-0.0026868,0.07782500000000001,3
-0.06444999999999999,-0.015174,0.023065,3
0.07678699999999999,0.012823,-0.022565,3
0.096721,-0.017258,-0.018262,3
-0.016674,0.0019512,0.01227,3
-0.098344,0.04538,0.022176,3
-0.028418,0.0049359,0.0073561,3
0.015278,-0.022661,-0.029309,3
0.013462,-0.01455,-0.058735,3
0.043085,0.026399,0.021676,3
0.088093,0.038902,0.034694,3
1.3934e-05,0.0055295,-0.042499,3
-0.018281,0.030423,-0.13071,3
0.07804700000000001,0.040898,0.0076194,3
0.043837,0.0011637,0.22834,3
-0.029925,-0.025743,0.044696,3
-0.031484,-0.015055,-0.0102,3
-0.009513799999999999,-0.011653,0.028077,3
0.037645,0.018563,-0.042189,3
0.05756,0.043801,-0.018773,3
-0.00087867,-0.0016703,0.08078100000000001,3
-0.043241,-0.0038166,0.10375,3
-0.033344,0.01303,-0.058351,3
-0.032057,-0.030191,-0.098815,3
0.013144,-0.08143499999999999,-0.0037504,3
0.047602,-0.055432,0.090916,3
0.019906,-0.045058,0.16907,3
0.009590100000000001,-0.018849,0.03314,3
-0.00050277,0.049882,-0.07289,3
-0.033473,0.040518,-0.055629,3
-0.05086,0.0013386,-0.048077,3
-0.1036,-0.016453,0.01169,3
-0.057241,0.008443600000000001,0.05591,3
0.10391,0.046906,-0.029002,3
0.089987,0.040943,-0.097972,3
0.015995,0.050793,-0.040323,3
-0.022005,0.06299399999999999,0.015382,3
-0.056583,-0.032474,-0.03978,3
-0.049525,-0.12331,-0.13617,3
-0.013259,-0.00038339,-0.044492,3
-0.0072139,0.13062,0.2027,3
0.0076709,0.091382,0.12161,3
0.07734099999999999,0.0037448,-0.17278,3
0.01932,-0.042545,-0.12723,3
-0.0083292,-0.054113,0.13369,3
0.031564,-0.048385,-0.013008,3
0.043324,-0.025279,-0.10057,3
0.032569,-0.040205,-0.057534,3
-0.00097452,-0.024821,0.016533,3
-0.085267,0.020224,0.08791300000000001,3
-0.062933,-0.02277,0.0016858,3
0.05693,-0.058143,0.0035418,3
0.056532,-0.041741,0.014591,3
0.01702,-0.016346,-0.059927,3
-0.022503,-0.0025901,-0.18014,3
-0.076198,0.016784,-0.0006116,3
-0.068492,0.019707,0.21381,3
0.037238,0.0028142,0.098259,3
0.036044,0.0051499,-0.033995,3
-0.0087023,0.035278,-0.035748,3
0.031408,0.030315,-0.017678,3
0.0011574,-0.0046917,-0.013894,3
-0.055168,0.024301,0.043105,3
-0.044421,0.039653,0.074832,3
0.01768,-0.0013157,-0.098065,3
0.017706,-0.0065172,-0.27989,3
-0.050187,0.012741,-0.095933,3
0.033615,-0.0088599,0.2161,3
0.07212499999999999,-0.022881,0.15615,3
0.0041016,-0.0054049,-0.032238,3
0.064627,0.017496,0.0062671,3
-0.03673,0.008877100000000001,-0.014887,3
-0.13328,-0.023504,-0.052417,3
-0.075214,-0.014304,-0.025221,3
0.079844,-0.0027659,-0.015828,3
0.11598,-0.018924,-0.0056906,3
-0.022823,-0.020496,0.018789,3
-0.075091,-0.012402,0.055228,3
-0.080107,-0.00052324,0.048597,3
0.029629,-0.0028172,0.03577,3
0.10327,-0.028838,0.0054505,3
0.0079737,-0.032555,-0.027585,3
-0.055062,-0.014079,0.0008762,3
-0.040788,-0.017841,-0.030164,3
-0.011064,-0.0056968,-0.016947,3
0.016636,0.019581,0.07767,3
0.047621,0.021003,0.026258,3
0.014213,0.021582,-0.050354,3
0.0025377,-0.0048769,-0.048841,3
-0.0058094,-0.023656,-0.0019476,3
-0.090984,-0.0015293,0.032675,3
-0.031603,0.025263,-0.0077797,3
0.14533,0.019684,-0.068092,3
0.084357,-0.018344,-0.03406,3
-0.070206,-0.015806,0.014565,3
-0.03117,0.025039,0.021853,3
-0.00087733,0.024188,0.023425,3
-0.0057735,0.009680299999999999,0.048453,3
0.008932000000000001,0.0074732,0.019794,3
0.012797,0.013706,-0.030478,3
-0.0071632,-0.0060528,-0.0066696,3
-0.030819,-0.003259,0.014451,3
0.012758,0.044155,0.016461,3
0.014658,0.050107,0.019968,3
0.0045557,0.044172,0.009468300000000001,3
0.05171,0.03309,-0.0014934,3
-1.5315e-05,-0.02014,0.0033955,3
-0.026015,-0.07977099999999999,0.03101,3
-0.018432,-0.033699,0.044919,3
0.04884,0.018931,0.032939,3
0.013824,0.0039677,-0.0068128,3
-0.08432199999999999,0.025509,-0.030604,3
-0.032398,0.041354,0.023522,3
0.017391,0.01176,0.032166,3
0.06733699999999999,-0.018263,-0.053225,3
0.060913,-0.0011019,-0.030694,3
-0.032094,-0.005918,-0.031984,3
-0.051066,-0.066313,-0.019515,3
-0.023286,-0.06307699999999999,0.09102399999999999,3
0.0067454,0.00095345,0.070295,3
0.02593,0.062282,0.032598,3
0.024289,0.053329,-0.039738,3
-0.03624,-0.006521,-0.1506,3
-0.10711,-0.068078,0.0039267,3
-0.0011439,-0.040319,0.039423,3
0.16122,0.0085624,0.037391,3
0.061022,0.01548,0.083811,3
-0.058863,0.048075,-0.043533,3
-0.0030567,0.028295,-0.046865,3
0.026928,-0.0076663,0.028561,3
-0.061563,-0.0086202,-0.015155,3
-0.11589,-0.008609,-0.047847,3
0.035072,-0.010721,0.0070088,3
0.048993,-0.0094182,0.045463,3
0.01753,-0.020051,0.031296,3
0.096189,-0.010742,0.012333,3
-0.0040201,0.031113,-0.088338,3
-0.09614,0.033896,-0.11601,3
0.0007275,0.011276,0.031732,3
0.040165,0.012154,0.076307,3
-0.029142,0.024871,0.017146,3
-0.1118,0.01103,-0.088338,3
-0.11172,-0.014042,-0.35168,3
0.072296,-0.0099451,-0.075712,3
0.22743,-0.0014418,0.36541,3
0.045348,0.003205,0.078795,3
-0.12334,0.0020348,-0.095874,3
-0.061371,0.016466,-0.07219,3
-0.01975,0.0056284,-0.08792,3
0.011807,-0.011663,0.013812,3
-0.010088,-0.016724,0.089347,3
-0.011,-0.021397,0.056743,3
0.076363,-0.019067,0.0024912,3
0.066076,-0.027029,-0.0032449,3
0.0037779,-0.020921,0.060401,3
-0.11344,-0.022364,0.076719,3
-0.06267499999999999,-0.015279,0.053441,3
0.083899,-0.0069713,-0.018076,3
0.034413,-0.014827,-0.019167,3
0.032087,0.00063618,0.014284,3
-0.0096223,9.1164e-05,0.008215999999999999,3
-0.042672,-0.021242,0.019369,3
-0.010696,-0.028212,0.03536,3
-0.016872,0.0019657,0.03002,3
-0.017797,0.022136,-0.036056,3
0.017261,0.0067123,-0.11683,3
0.019901,-0.018421,-0.10001,3
0.0060434,-0.02466,0.041342,3
6.5087e-05,-0.024885,0.06359099999999999,3
-0.0067381,-0.027084,-0.0057312,3
0.052911,0.0060058,-0.028023,3
0.040847,0.06776799999999999,0.0069726,3
-0.06358900000000001,0.058527,0.025255,3
-0.033843,0.010949,-0.052225,3
0.03211,-0.032094,-0.14666,3
-0.00086962,-0.076388,-0.0085015,3
0.010138,-0.021733,0.058793,3
0.057819,0.081359,-0.0030765,3
0.041673,0.09585299999999999,0.09947300000000001,3
-0.021483,0.058123,0.051772,3
-0.046524,0.044122,-0.053718,3
0.03416,-0.038697,-0.017255,3
-0.031687,-0.10352,0.019054,3
-0.026001,-0.02076,0.030012,3
0.0159,0.027104,-0.007937899999999999,3
-0.0043555,0.05128,-0.024644,3
0.00040072,0.056102,0.0059886,3
-0.094336,0.033168,0.034074,3
-0.008084900000000001,0.024155,0.07835399999999999,3
0.1093,0.015482,0.051325,3
0.010237,-0.0094971,-0.012429,3
-0.027129,-0.036716,-0.065068,3
-0.0095911,-0.030313,-0.018872,3
-0.020188,-0.011887,0.047089,3
-0.016572,-2.1672e-06,0.021578,3
-0.014353,-0.0053022,-0.00712,3
-0.015093,-0.0069084,-0.00015044,3
-0.02661,-0.0012736,-0.001141,3
0.017311,-0.011816,0.0030026,3
0.08065899999999999,-0.0028647,0.012196,3
0.011876,0.022317,0.0027297,3
-0.0015634,0.04111,-0.072341,3
0.014996,-0.025247,-0.15813,3
-0.022315,-0.07086000000000001,-0.026238,3
-0.12364,-0.02587,0.17669,3
-0.19277,0.0029638,0.095864,3
0.036202,-0.0098858,-0.0084759,3
0.18141,-0.010598,-0.07609299999999999,3
0.049584,0.020676,-0.04576,3
-0.023439,0.0068788,0.057058,3
-0.047815,-0.0071754,0.025294,3
-0.015856,-0.0047061,-0.030731,3
-0.012994,-0.019302,0.053562,3
-0.023989,0.024355,0.12661,3
-0.0040213,0.018145,-0.13359,3
0.014352,-0.050841,-0.24857,3
0.040337,-0.02209,-0.11536,3
0.021333,0.030724,0.19227,3
0.024606,0.040229,0.25256,3
0.097638,0.047188,-0.018885,3
0.021445,0.049542,-0.09883699999999999,3
-0.049017,0.024082,-0.056014,3
0.042257,-0.032857,-0.026704,3
0.01108,-0.06349299999999999,0.027789,3
-0.04239,-0.00023558,0.07836600000000001,3
0.085008,0.017871,-0.051995,3
0.082561,-0.010428,-0.12725,3
-0.042697,0.0009255,0.04499,3
-0.031252,0.0089058,0.09524199999999999,3
-0.023938,-0.015995,-0.027745,3
-0.025971,-0.023704,-0.12022,3
-0.0438,-0.038295,-0.029876,3
-0.054945,-0.013079,0.13854,3
0.0095356,0.037979,0.077607,3
0.081454,-0.005756,0.017423,3
0.06705899999999999,-0.06572799999999999,-0.024696,3
-0.028053,-0.031145,-0.29147,3
0.020259,0.034342,-0.34405,3
-0.024784,0.0052107,0.26065,3
-0.097941,-0.0057333,0.30931,3
-0.021828,0.019964,-0.08957,3
-0.053856,0.021159,0.025176,3
-0.016662,0.013741,0.039298,3
0.13985,0.002744,-0.16041,3
-0.015579,0.0030694,-0.10841,3
-0.080743,0.011364,0.037686,3
0.018637,0.016301,0.11723,3
-0.05437,0.0083952,0.068096,3
-0.029922,-0.008673699999999999,-0.017998,3
0.0087423,-0.016521,0.012837,3
0.038393,-0.01328,0.01174,3
0.043051,-0.0072166,0.08741400000000001,3
-0.008763099999999999,0.018557,0.1265,3
-0.032519,0.024879,-0.088212,3
0.00050184,0.008496500000000001,-0.30657,3
0.057321,0.0069295,-0.11344,3
-0.057487,0.034155,0.22434,3
-0.16256,0.026728,0.23264,3
0.09116,-0.043166,0.020004,3
0.18127,-0.032372,-0.099049,3
-0.053453,0.03426,-0.040436,3
-0.069273,0.026622,0.0046402,3
0.08591500000000001,-0.006082,-0.014767,3
0.051873,0.028127,-0.041468,3
-0.054536,0.058163,-0.014235,3
-0.038355,-0.02889,0.04624,3
-0.01274,-0.091238,0.05504,3
-0.0010106,0.0063527,0.055426,3
0.013055,0.059392,0.050117,3
0.0061724,0.012875,0.027505,3
-0.00050279,-0.017007,0.039129,3
0.012501,-0.038127,-0.026675,3
0.0052306,-0.050316,-0.02249,3
-0.03301,-0.036334,0.060205,3
0.032663,-0.029988,-0.057867,3
0.06834999999999999,0.0060729,-0.070215,3
0.020805,0.045601,0.08944000000000001,3
0.021115,-0.0011669,0.056195,3
-0.022325,-0.02931,0.00076616,3
-0.07022100000000001,-0.0051224,0.018171,3
-0.0066117,0.0044844,0.05272,3
0.019332,0.021353,-0.029616,3
0.028583,0.0097804,-0.14609,3
0.031348,-0.04433,-0.068324,3
-0.020943,-0.05133,0.065041,3
-0.08075599999999999,-0.029655,0.07207,3
-0.026231,0.0035875,0.054795,3
0.056449,0.050391,0.037464,3
0.022462,0.020069,-0.10279,3
0.023772,0.024905,-0.11859,3
0.032623,0.046211,-0.066021,3
-0.011793,0.013078,-0.027679,3
-0.058943,-0.022972,0.12951,3
-0.11474,-0.029406,0.11137,3
-0.019909,-0.011329,-0.0019781,3
0.16976,-0.0060278,-0.12748,3
0.069052,-0.012632,-0.16924,3
-0.087782,-0.0073184,0.017934,3
-0.07409,0.0023926,0.09568400000000001,3
-0.034878,0.015662,0.0087542,3
0.027899,0.020833,-0.022755,3
0.019781,0.0097579,-0.0076295,3
0.11609,-0.005785,-0.0030517,3
0.029081,-0.01619,0.021376,3
-0.15982,-0.01316,-0.13134,3
-0.045512,-0.016271,-0.28618,3
0.053626,-0.021963,0.05734,3
0.039378,-0.01936,0.27523,3
0.020958,0.036954,0.078082,3
-0.036666,0.075086,-0.054837,3
-0.040346,0.051097,-0.076234,3
0.015229,0.022861,-0.043778,3
0.039787,0.019295,-0.025878,3
0.0015177,-0.01516,-0.032442,3
-0.056879,-0.06975199999999999,-0.012824,3
0.0090756,-0.024063,-0.021565,3
0.036323,0.013093,-0.26624,3
-0.030097,0.011729,-0.021888,3
-0.032009,0.010554,0.41339,3
0.041935,0.034233,0.096057,3
0.031132,0.074964,-0.080538,3
-0.0164,0.001703,-0.06370199999999999,3
-0.01772,-0.058141,-0.17572,3
-0.040095,-0.044245,-0.002257,3
0.053412,-0.033582,0.36415,3
0.1455,-0.0056773,0.068305,3
-0.050674,0.0084017,-0.17874,3
-0.10679,0.0032418,-0.059885,3
-0.06702900000000001,0.0035465,-0.0015491,3
0.009077200000000001,0.018319,0.11141,3
0.097856,0.0088328,0.09850100000000001,3
-0.053068,-0.004909,-0.0033687,3
-0.071828,-0.023627,0.022602,3
0.036965,-0.052999,0.035783,3
0.049149,-0.0097299,0.012736,3
0.021069,0.054609,0.016916,3
-0.029944,0.052897,0.025505,3
-0.031016,0.012128,0.042147,3
-0.013361,-0.010344,-0.034152,3
0.00067091,-0.008518299999999999,-0.08081000000000001,3
0.0069874,0.016545,-0.013947,3
0.019142,0.019974,-0.048435,3
0.024025,-0.025582,0.056783,3
0.0080768,-0.020055,0.16204,3
-0.033183,0.018494,-0.09354700000000001,3
-0.0034053,0.034576,-0.09939099999999999,3
0.10519,0.051932,-0.00074653,3
-0.00093147,0.021323,-0.0040727,3
-0.069495,-0.041341,0.016407,3
-0.030756,-0.0988,0.090533,3
0.069797,-0.031737,0.04159,3
0.12623,0.06977899999999999,-0.09730800000000001,3
-0.02477,0.045899,-0.083578,3
-0.1015,-0.015081,-0.009526,3
-0.011637,-0.045326,0.084729,3
0.07743800000000001,-0.027116,0.088396,3
-0.031049,0.009603799999999999,0.071106,3
-0.05934,0.0050311,-0.022863,3
-0.0010159,-0.011505,-0.073161,3
0.053721,-0.013202,-0.022637,3
0.008448799999999999,-0.003677,0.0077021,3
-0.068942,-0.014122,0.022535,3
-0.015309,-0.036334,0.0014267,3
0.056993,-0.033695,0.01535,3
0.057213,-0.020277,0.030694,3
-0.012381,-0.008964700000000001,0.06716,3
-0.050135,-0.0029223,0.0096919,3
-0.10072,-0.0012529,-0.25217,3
-0.13786,0.039683,-0.29594,3
-0.00019675,0.086136,0.083413,3
0.18734,0.008058299999999999,0.21805,3
0.11634,-0.061355,0.04763,3
-0.026716,-0.024872,-0.056083,3
-0.039809,0.016643,-0.051656,3
-0.0475,-0.024237,-0.03392,3
-0.017263,-0.045996,-0.039928,3
0.020991,0.035256,-0.09199300000000001,3
0.007821,0.060668,-0.14261,3
-0.031707,0.03765,0.02124,3
-0.0026151,-0.0062445,0.076831,3
0.07104199999999999,-0.046382,-0.05838,3
0.030636,0.014061,0.094988,3
0.00091694,0.018656,0.10685,3
0.01865,-0.018556,-0.032453,3
-0.07287299999999999,-0.0054563,0.0043572,3
-0.081525,-0.0053493,0.002641,3
0.042447,-0.013812,-0.041046,3
0.074727,-0.01356,-0.048073,3
-0.044739,-0.011503,0.016834,3
-0.062393,-0.035416,0.062863,3
0.004556,-0.041967,0.04166,3
0.06634900000000001,0.035709,0.0057383,3
0.040543,0.07585600000000001,0.080624,3
-0.057091,0.0077363,0.11207,3
-0.09823900000000001,-0.019387,0.041639,3
0.031858,-0.011647,-0.10792,3
0.071842,-0.021655,-0.27169,3
0.0028039,-0.015805,0.061497,3
0.010789,-0.0061276,0.30828,3
-0.023506,0.013623,-0.0092017,3
-0.031501,0.04767,-0.15356,3
0.085107,0.0377,-0.039853,3
0.058849,0.035798,0.028791,3
-0.041229,0.039532,0.023594,3
-0.011161,0.042471,0.038298,3
0.0094517,0.021822,-0.0061315,3
0.011412,-0.055969,-0.009001200000000001,3
0.006544,-0.039638,0.0026405,3
-0.044867,0.017152,0.022704,3
-0.027106,0.024859,-0.0066569,3
0.092253,0.019842,-0.037979,3
0.010297,0.015091,0.015399,3
-0.074083,0.011523,0.071965,3
-0.010005,0.0047638,0.05452,3
0.042188,-0.012535,0.068899,3
0.027195,-0.027346,0.060269,3
-0.0094368,-0.036018,-0.1128,3
-0.062809,-0.029573,-0.11535,3
-0.1213,-0.00039573,-0.0065127,3
-0.085364,0.013387,0.13056,3
0.17875,-0.0017553,0.087813,3
0.14984,-0.023355,-0.035594,3
-0.083547,-0.019987,-0.026048,3
-0.038195,0.024693,-0.0025947,3
-0.038795,0.05005,0.00015065,3
-0.042511,0.026492,-0.0055715,3
0.014833,0.010551,-0.027898,3
0.042622,0.034525,-0.026837,3
0.015176,0.030431,0.012367,3
0.009140799999999999,-0.0574,0.029132,3
0.0012982,-0.038546,-0.009406100000000001,3
-0.067403,0.03205,-0.032626,3
-0.082733,0.030332,0.0082132,3
0.0064795,0.028905,0.025326,3
0.06811,0.028958,-0.082387,3
0.041287,0.009064300000000001,-0.19437,3
0.017258,-0.04845,0.030042,3
-0.018672,-0.088267,0.16333,3
-0.012965,-0.064364,0.011929,3
0.014086,-0.035632,-0.070456,3
0.0027966,0.0054249,-0.13378,3
0.011085,0.027016,-0.03749,3
-0.0050266,-0.03632,0.06102,3
-0.008913600000000001,-0.049213,-0.12332,3
0.030441,-0.034383,-0.095195,3
0.038034,-0.008252300000000001,0.2688,3
0.0069381,-0.0072216,0.16682,3
0.0064096,-0.025667,-0.39058,3
0.0084513,-0.023466,-0.31102,3
-0.039682,-0.0049996,0.16601,3
-0.07516399999999999,0.008370799999999999,0.20524,3
-0.028623,0.017311,0.048304,3
0.10832,0.033838,-0.029513,3
0.073712,0.015306,0.012536,3
-0.024612,-6.7084e-05,0.010503,3
-0.039013,0.0034155,-0.058204,3
-0.035967,-0.0024802,0.012344,3
-0.0055282,0.022508,0.070606,3
-0.013389,0.05357,-0.080029,3
-0.0018455,0.023907,-0.050035,3
0.03624,-0.0010828,0.20066,3
-0.014071,-0.0070202,0.08078,3
0.011207,-0.0045691,-0.08685,3
0.039585,-0.010486,-0.0013627,3
-0.016393,-0.009531100000000001,0.036657,3
-0.00012501,0.0062899,-0.039353,3
0.017668,0.0023258,-0.017722,3
0.014754,0.0064677,0.11122,3
-0.034595,0.0035754,0.08081099999999999,3
-0.026574,0.0034481,0.057211,3
0.035333,0.01049,-0.029144,3
-0.028313,0.0044263,-0.1471,3
-0.073626,0.0028091,-0.017395,3
0.016219,0.012098,0.11148,3
0.052533,0.008594299999999999,0.091797,3
-0.022341,0.0060137,0.057621,3
-0.01387,-0.010862,0.003374,3
0.022183,-0.028375,-0.08788899999999999,3
-0.08075599999999999,-0.0045624,-0.060192,3
-0.14192,0.0099227,0.0028676,3
0.048508,0.0057594,0.033437,3
0.054902,0.0053136,0.029713,3
-0.032456,0.0058459,-0.12927,3
-0.018364,0.0016848,-0.062621,3
0.031992,0.012245,0.19513,3
0.084254,0.014729,0.033501,3
0.028464,-0.0050151,-0.08717999999999999,3
-0.057242,-0.016287,-0.023206,3
-0.059262,-0.016786,-0.0071615,3
0.016407,-0.02773,-0.041737,3
0.042001,0.050776,-0.032327,3
-0.0077995,0.10282,0.042176,3
-0.0083482,0.026279,0.028929,3
0.061986,-0.0059895,-0.022505,3
0.06783599999999999,0.011545,-0.007522,3
0.028656,-0.0036418,0.01466,3
0.023785,-0.010657,0.032969,3
-0.00057905,-0.0079039,0.066511,3
-0.0080439,0.00017052,0.02646,3
0.007819,0.039868,-0.0089873,3
-0.015975,0.018358,-0.041541,3
-0.070426,0.00068327,-0.035355,3
-0.042105,0.022527,0.0050426,3
-0.0042511,-0.0091859,-0.078698,3
0.034373,-0.03151,0.0042644,3
0.11701,-0.034467,0.15869,3
0.048916,-0.069061,-0.030964,3
-0.09547799999999999,-0.05667,-0.027058,3
-0.06862799999999999,0.00089416,0.042338,3
0.034526,0.034155,-0.046554,3
0.046504,0.020192,-0.061937,3
-0.028319,-0.023907,-0.15076,3
-0.040596,-0.046487,-0.096925,3
-0.0035737,-0.044752,0.1409,3
0.053643,-0.041178,0.095014,3
0.044047,-0.03392,0.029298,3
-0.017715,0.021464,0.016145,3
-0.0004924,0.053135,-0.08716599999999999,3
0.0045127,0.011619,-0.048232,3
-0.014305,-0.013724,-0.061949,3
-0.0060202,-0.0021676,-0.14543,3
0.037707,0.0092181,-0.050373,3
0.034889,-0.023703,0.21261,3
-0.059431,-0.031749,0.2096,3
-0.06546399999999999,0.010661,-0.15793,3
0.011188,0.01405,-0.083762,3
0.018703,0.028762,0.12984,3
0.0033613,0.01669,0.032815,3
-0.018807,-0.020465,-0.06509,3
-0.049734,-0.009081000000000001,-0.08247599999999999,3
-0.036874,-0.021188,0.0042034,3
0.03488,-0.032905,0.094345,3
0.027775,-0.017489,0.07029100000000001,3
-0.041907,0.0024951,0.00056612,3
-0.0024887,0.021146,-0.17929,3
0.032965,0.032144,-0.17065,3
-0.00046559,0.013716,0.15298,3
-0.051159,-0.015819,0.16218,3
-0.054343,-0.014665,-0.050225,3
0.043477,0.009895899999999999,-0.051847,3
0.07924200000000001,0.018474,-0.0053912,3
0.0031919,0.0044888,0.012092,3
-0.043405,0.025934,-0.010057,3
-0.028154,0.012141,-0.013765,3
-0.038761,-0.014946,0.016814,3
-0.059307,0.01738,0.034803,3
0.09848800000000001,0.033644,0.0099703,3
0.11367,0.018698,-0.00086819,3
-0.045313,0.013982,0.028471,3
-0.056405,0.0017667,0.06306200000000001,3
-0.019852,-0.023715,0.017452,3
-0.0081031,-0.021516,-0.026514,3
0.046036,0.0025116,0.034135,3
-0.004301,-0.0020615,0.091346,3
-0.048698,-0.019127,0.048531,3
-0.01828,0.011517,-0.06228,3
0.020059,0.012424,-0.021601,3
0.12267,-0.012838,0.0027674,3
0.063087,-0.015698,-0.088627,3
-0.030498,0.0051015,-0.10593,3
-0.011669,0.020767,-0.10733,3
0.0049349,-0.011774,-0.028619,3
-0.0069881,-0.018472,0.21254,3
-0.012013,-0.0026258,0.085635,3
0.0017437,0.036304,-0.099858,3
0.0021441,0.07482800000000001,-0.048223,3
-0.013744,0.043014,-0.045403,3
-0.0068373,0.0042154,-0.056894,3
-0.0069155,0.038574,-0.0030223,3
0.023132,0.043278,6.8075e-05,3
0.053442,-0.035458,-0.036307,3
-0.07199,-0.06647500000000001,0.06222,3
-0.018807,-0.02582,0.10967,3
0.096539,0.027552,0.028997,3
-0.039824,0.059138,-0.032339,3
-0.10308,0.026409,-0.053873,3
-0.048701,-0.009928299999999999,-0.0075607,3
-0.012229,-0.03858,0.07559,3
0.058003,-0.058225,0.080431,3
0.054327,-0.029928,-0.02624,3
-0.00068853,-0.009544499999999999,-0.061243,3
-0.018832,-0.026908,0.0043292,3
-0.019942,-0.039468,0.081855,3
-0.02603,-0.032412,0.12988,3
-0.01331,-0.022548,0.10556,3
0.0070156,-0.012108,-0.0042484,3
0.014514,0.0022132,-0.13374,3
0.0030026,0.0070474,-0.15949,3
-0.055175,0.0067839,-0.07732,3
-0.013678,0.0024949,0.18406,3
0.062956,-0.0099802,0.31993,3
0.023545,0.010811,-0.040485,3
-0.012486,0.027854,-0.16774,3
0.0013094,0.014878,-0.015865,3
-0.0050372,-0.0048599,-0.09649000000000001,3
-0.044783,-0.012596,0.010158,3
-0.061083,-0.01696,0.14974,3
0.057166,-0.019216,-0.029741,3
0.057644,0.015562,-0.10322,3
-0.0063032,0.01916,-0.034914,3
0.029184,0.0077626,-0.016799,3
-0.046657,0.0022475,-0.10497,3
-0.038327,-0.018607,-0.14921,3
0.075276,-0.017596,-0.040563,3
0.09654799999999999,-2.4602e-05,0.12794,3
0.024719,0.01397,0.15185,3
-0.017396,0.018169,-0.036946,3
-0.018319,0.027709,-0.17922,3
-0.014122,0.010987,-0.10878,3
0.02774,-0.001232,0.057586,3
0.010445,-0.009834499999999999,0.057231,3
-0.033732,-0.021313,-0.021303,3
-0.015123,0.010561,0.013117,3
0.041335,0.034634,0.033949,3
0.059858,0.067054,-0.018891,3
-0.025331,0.06594899999999999,-0.0051188,3
-0.051879,0.0072775,0.023533,3
0.0035177,-0.062639,0.024658,3
-0.050095,-0.071515,0.02015,3
-0.020417,-0.0061159,-0.09214899999999999,3
0.032915,0.020757,-0.19985,3
-0.00056919,-0.0027347,0.030875,3
-0.020837,-0.014654,0.24655,3
0.012204,-0.009615800000000001,0.041979,3
0.0085843,0.012359,-0.09998799999999999,3
-0.026752,0.053261,0.014142,3
-0.06288299999999999,0.009029000000000001,0.0031399,3
-0.046737,-0.061701,-0.023872,3
0.030216,-0.05457,0.07412100000000001,3
0.11378,-0.031309,0.078253,3
0.070241,0.008471899999999999,-0.041724,3
-0.048077,0.02785,-0.081626,3
-0.042204,-0.00027606,-0.0060663,3
-0.025032,-0.054594,0.056415,3
-0.010259,-0.01929,0.07609200000000001,3
-0.025375,0.034373,0.077348,3
0.019834,0.017234,0.012872,3
0.069243,0.0071388,-0.0071597,3
0.0080762,0.0080935,0.011673,3
-0.013288,0.006988,0.008897499999999999,3
-0.018478,0.0040956,0.0030887,3
-0.0059114,0.004805,-0.032839,3
0.023132,0.0043713,-0.12929,3
-0.038668,-0.0030576,-0.07263500000000001,3
-0.071173,-0.015037,0.073341,3
0.034315,-0.0093212,0.099477,3
0.082761,0.0084476,0.1351,3
0.026973,-0.0040861,-0.023308,3
-0.009820199999999999,-0.0046214,-0.26219,3
-0.034684,0.005195,-0.080986,3
-0.029417,0.0065424,0.1638,3
-0.01674,-0.010188,0.020915,3
-0.0061173,-0.0070911,-0.039686,3
-0.0062886,0.03075,0.026623,3
-0.0077278,0.0049366,0.036125,3
0.012758,-0.027492,0.014794,3
-0.0086231,0.0080473,0.011317,3
-0.0039646,0.066931,-0.02917,3
0.045128,0.059003,-0.023849,3
0.0067596,0.021688,0.054914,3
0.012201,0.020358,0.080257,3
0.025107,-0.0065884,-0.053299,3
-0.048065,-0.07078,-0.10245,3
-0.11998,-0.0667,0.014103,3
-0.11918,0.033611,0.012705,3
0.014973,0.081538,-0.0082913,3
0.015216,0.034656,0.033133,3
0.053456,0.014483,0.028832,3
0.063136,0.014349,-0.018472,3
-0.017512,-0.016779,0.039773,3
-0.016654,-0.03416,0.03301,3
0.01617,-0.030651,-0.022858,3
-0.010886,-0.024622,0.0043333,3
-0.034217,-0.017444,0.027162,3
0.016456,-0.024704,-0.013551,3
0.040276,-0.0096819,-0.00091686,3
0.032345,0.0059571,0.015422,3
0.020388,-0.002962,-0.011299,3
0.026344,-0.022353,0.022522,3
0.030777,-0.029172,0.060001,3
0.0813,-0.0074041,-0.010942,3
0.047394,0.040133,-0.078765,3
-0.02354,0.014148,-0.13922,3
0.033148,-0.056606,-0.0023379,3
-0.039839,-0.035435,0.095358,3
-0.068325,-0.008860399999999999,-0.018696,3
0.014154,0.0062281,-0.052344,3
0.063912,0.022795,-0.11479,3
0.027331,0.0031104,-0.10287,3
0.011143,-0.01264,0.066014,3
-0.015872,-0.025258,0.13131,3
-0.042857,-0.025289,0.049873,3
-0.0018886,0.0079062,-0.015719,3
0.020629,0.03102,-0.056303,3
-0.028414,0.0087647,-0.055853,3
-0.064127,-0.015027,0.0092043,3
-0.029095,-0.008895800000000001,0.045571,3
0.012325,0.0021424,0.026163,3
-0.025331,0.0016417,-0.18417,3
-0.060317,0.0015835,-0.39887,3
0.046861,-0.0010053,0.19418,3
0.062838,-0.00047814,0.51908,3
-0.0027342,0.012092,-0.050835,3
-0.042276,0.028198,-0.13928,3
-0.022984,0.026605,0.00015856,3
-0.001879,0.029595,-0.009981200000000001,3
-0.008294299999999999,0.036043,-0.036491,3
0.011611,0.034797,-0.08952499999999999,3
0.02475,-0.012574,-0.042249,3
-0.041843,-0.067081,0.16814,3
-0.083048,-0.014996,0.10507,3
0.042898,0.054646,-0.068227,3
0.078469,0.045729,-0.0073908,3
0.0054551,-0.00062309,0.086536,3
0.014337,-0.017158,0.12373,3
0.031431,0.009277199999999999,0.055144,3
0.0070386,-0.00019961,0.0089249,3
-0.036298,-0.03914,0.011357,3
-0.038314,-0.0069144,-0.059099,3
0.010081,-0.0085071,-0.11556,3
0.05428,-0.030806,-0.008414,3
0.0061967,-0.014242,0.038224,3
-0.05143,-0.0008728,0.0047614,3
-0.022764,0.013434,0.012503,3
-0.029014,-0.011846,0.015751,3
0.033297,-0.037193,-0.031726,3
0.069203,-0.0034674,-0.029426,3
-0.017891,0.042149,0.026541,3
-0.07973,0.0047505,0.018707,3
-0.021195,-0.041549,-0.07796599999999999,3
-0.0014325,0.0023004,-0.069202,3
-0.007883100000000001,0.011674,0.008528000000000001,3
0.052024,-0.0075595,0.019779,3
0.0021016,0.0024454,-0.08390599999999999,3
-0.06658,-0.0027026,-0.14519,3
-0.073355,0.013818,0.13875,3
0.014114,0.033919,0.13941,3
0.07394299999999999,0.019555,-0.06314,3
0.0020405,0.02005,-0.0067525,3
-0.0016826,0.045448,0.08294799999999999,3
0.037304,0.042602,0.07639799999999999,3
0.019197,0.019726,0.029002,3
-0.0061123,-0.0052646,-0.17518,3
0.059372,-0.039521,-0.30423,3
0.06693200000000001,-0.055461,0.048742,3
-0.042473,0.013662,0.24637,3
-0.028661,0.036586,0.088349,3
0.010901,0.027542,-0.0009997700000000001,3
0.0050446,0.039235,-0.0090046,3
0.0172,0.025745,-0.018365,3
0.019149,0.0034197,-0.024817,3
-0.054545,-0.057313,0.020997,3
-0.042199,-0.070303,0.061494,3
0.09067600000000001,-0.022143,0.010378,3
0.052445,-0.0044765,-0.031006,3
-0.054522,-0.0030602,-0.022765,3
0.0078123,-0.0050476,-0.0054701,3
-0.0046533,-0.013536,0.01382,3
-0.16465,-0.0045138,0.019719,3
-0.082507,0.0081005,0.04182,3
0.20952,-0.0063474,0.013081,3
0.11741,-0.0035394,-0.097356,3
-0.04809,-0.0013756,-0.084893,3
-0.07087400000000001,-0.032356,0.13183,3
-0.048205,-0.038015,0.10535,3
0.0052072,0.0098479,-0.088519,3
0.027171,0.045573,-0.062706,3
0.028909,0.0096236,0.012423,3
0.014766,0.0029783,0.022895,3
-0.017828,0.025567,-0.004253,3
0.0002409,0.023841,-0.06296,3
0.032027,-0.01431,-0.060315,3
-0.037517,-0.06821000000000001,-0.0027632,3
-0.041825,-0.036858,0.044114,3
0.03005,0.009169800000000001,0.043583,3
0.018482,0.053566,-0.015328,3
-0.026785,0.049886,0.0047191,3
-0.0081136,0.0064846,-0.038318,3
0.010047,-0.011579,-0.07432800000000001,3
0.0073381,-0.024958,0.036665,3
-0.0041108,-0.018679,0.092719,3
-0.009081199999999999,0.0017718,0.014768,3
-0.029918,0.0075149,-0.044234,3
-0.030442,-0.018693,-0.13006,3
-0.015879,-0.041011,-0.19161,3
-0.12779,-0.021839,-0.060977,3
-0.088944,0.016816,0.231,3
0.24139,0.01717,0.21844,3
0.17373,-0.017102,0.0024179,3
-0.088745,-0.0058489,-0.11313,3
-0.07851,0.01087,-0.05835,3
-0.013228,0.009447799999999999,0.052687,3
-0.008655299999999999,-0.007555,0.054125,3
-0.046919,-0.020993,0.03791,3
-0.048196,-0.018201,0.014712,3
0.045483,-0.027169,-0.008749,3
0.10311,-0.0004757,0.028723,3
0.0364,0.042155,0.055003,3
-0.029518,0.015544,0.033835,3
-0.013148,-0.0027239,0.026883,3
0.0045818,-0.010583,0.061783,3
-0.015075,-0.020763,0.013578,3
0.0069629,0.0073901,-0.1687,3
0.023498,0.033976,-0.115,3
-0.019108,0.015979,0.18685,3
-0.009042100000000001,-0.001441,0.025217,3
0.015157,0.012179,-0.24442,3
-0.0086426,0.021528,0.016633,3
-0.037884,0.054515,0.12552,3
0.00061052,0.045465,-0.024058,3
0.033349,-0.060747,-0.040845,3
-0.0004257,-0.063066,-0.022309,3
-0.018797,0.010196,-0.07040299999999999,3
-0.0056256,0.059545,-0.059947,3
0.019992,0.091734,0.039201,3
0.0084361,0.062861,0.049419,3
-0.043159,0.015821,0.011814,3
-0.034544,0.008345399999999999,0.009050000000000001,3
0.0016402,-0.0053664,-0.063822,3
-0.031752,-0.094199,-0.11017,3
0.014393,-0.076991,0.056032,3
0.14453,0.032569,0.1515,3
-0.047168,0.054983,0.062453,3
-0.059377,0.033139,-0.00084081,3
0.11081,-0.01286,-0.055603,3
-0.045751,-0.026559,-0.18914,3
-0.023351,-0.0017066,-0.047269,3
0.038706,0.0019335,0.18027,3
0.043963,-0.013292,-0.041169,3
0.019208,-0.017831,-0.014433,3
-0.035342,-0.072563,0.06447899999999999,3
0.010479,-0.12121,-0.017634,3
0.029889,-0.024809,-0.051012,3
0.015075,0.071918,-0.022335,3
-0.0084885,0.048801,0.040676,3
-0.0053804,-0.022822,0.08583200000000001,3
0.033221,-0.041304,0.018224,3
0.022828,-0.019895,-0.09787899999999999,3
-0.05575,-0.014015,-0.030312,3
-0.084985,-0.0027084,0.07899,3
-0.08984,0.001519,0.031365,3
0.0056267,-0.013784,0.044541,3
0.06757199999999999,-0.024417,0.08676399999999999,3
-0.0023533,-0.0040715,-0.10173,3
-0.0010975,0.040868,-0.057555,3
-0.019079,0.024721,0.08629299999999999,3
-0.037889,-0.0018656,0.01607,3
0.042658,0.006994,-0.028332,3
0.016189,0.0056026,-0.0023506,3
-0.03348,-0.031348,0.009829600000000001,3
-0.0011179,-0.010838,-0.0060697,3
0.016463,0.024092,-0.010503,3
0.013595,0.0064907,-0.012405,3
0.011712,0.017541,-0.013949,3
0.01974,0.015522,0.050439,3
0.012333,-0.00080116,0.088966,3
-0.030407,0.0060384,0.0075303,3
0.0008363999999999999,0.023037,-0.08463900000000001,3
0.046353,0.011301,-0.1431,3
0.022296,0.016192,-0.15425,3
-0.009601200000000001,0.040992,0.07389999999999999,3
-0.076402,0.019041,0.24678,3
-0.016025,-0.024703,-0.029546,3
0.095526,-0.018071,-0.083331,3
-0.01472,0.00027805,0.08043400000000001,3
-0.080377,0.0036968,0.015961,3
0.0013307,-0.0012663,0.008553099999999999,3
0.02285,-0.0050155,0.006865,3
0.018932,0.025461,-0.10197,3
0.0025211,0.026338,-0.12384,3
-0.092671,-0.0069846,-0.025527,3
-0.12622,-0.0024896,0.15428,3
0.0445,0.0039473,0.15197,3
0.14603,0.01467,-0.01733,3
0.11666,0.043796,-0.017446,3
0.051911,1.7518e-05,0.031945,3
-0.098838,-0.034322,0.0013725,3
-0.05806,-0.033393,-0.01918,3
-0.023341,-0.0095236,-0.031717,3
-0.079231,0.023972,-0.13411,3
-0.0027356,0.025568,-0.12707,3
0.13641,0.015985,0.040036,3
0.09689300000000001,-0.020873,0.07638,3
-0.012207,-0.037239,0.072479,3
-0.052439,-0.057678,0.023147,3
-0.061942,-0.066223,-0.012727,3
0.02381,-0.034736,0.022454,3
0.061045,0.0025937,-0.08601399999999999,3
0.046743,0.089515,-0.094356,3
0.025691,0.041171,0.013188,3
-0.015388,-0.048476,0.02917,3
-0.04622,-0.049528,0.02968,3
-0.017782,-0.037176,0.029039,3
-0.024021,-0.018349,0.015881,3
-0.031971,0.00021349,0.0061401,3
-0.0012892,0.028747,0.035286,3
0.022464,0.041491,0.065485,3
0.0026171,0.032076,0.045816,3
-0.023789,0.027901,0.0029341,3
-0.015413,0.058711,-0.037032,3
-0.052719,0.051082,-0.13139,3
-0.084064,-0.019178,-0.28191,3
0.0043886,0.0038588,-0.074369,3
0.12179,0.044202,0.34384,3
0.016884,-0.0040671,0.064958,3
-0.057463,-0.051375,-0.17227,3
0.0032164,-0.010706,-0.007302,3
0.0077494,0.0088962,-0.0083331,3
0.008837599999999999,0.0094375,-0.030428,3
0.013917,0.010627,-0.0099896,3
-0.027733,-0.034104,0.0019545,3
-0.009013500000000001,-0.030002,0.0077557,3
0.057437,-0.00086514,0.004292,3
0.051353,0.021064,-0.0037024,3
-0.032212,0.032722,0.010198,3
-0.057523,-0.00042925,0.030812,3
0.024497,-0.062579,0.02878,3
0.050239,-0.08282200000000001,0.06604599999999999,3
0.028383,-0.034484,0.052465,3
-0.005558,0.010509,0.018455,3
-0.08608399999999999,0.032961,0.034814,3
-0.08758000000000001,0.042475,0.0031859,3
0.060561,0.01961,-0.010268,3
0.095274,-0.0071399,0.0053577,3
-0.057114,-0.004796,0.036674,3
-0.044406,0.010678,0.02406,3
-0.0015036,0.025923,-0.021696,3
-0.027815,0.018293,0.04821,3
0.025794,-0.022393,0.031221,3
0.059035,-0.062759,-0.063997,3
0.0026775,-0.046,-0.062747,3
-0.024378,-0.0002155,0.011418,3
-0.024195,0.016738,0.085017,3
-0.045999,0.014274,0.095974,3
-0.010479,0.01288,0.008242599999999999,3
0.016633,0.034885,-0.054069,3
-0.046546,-0.010755,-0.040624,3
0.033484,-0.067067,-0.030663,3
0.077431,-0.038445,-0.0028414,3
-0.00049726,-0.015953,-0.024239,3
-0.0099284,-0.00052808,0.016108,3
-0.0121,0.019354,0.09078799999999999,3
-0.018057,0.030605,0.013899,3
-0.0083585,0.0036078,-0.03669,3
0.014206,-0.020585,-0.073738,3
0.024026,-0.0024303,-0.16715,3
0.039558,-0.0074736,-0.11784,3
0.03744,-0.0072812,0.074323,3
-0.015679,-0.013535,0.10454,3
-0.00035794,-0.011723,-0.093657,3
0.081882,0.018897,-0.099561,3
0.0088158,-0.0015777,0.10352,3
-0.051287,0.0072947,0.066914,3
-0.050027,0.070691,-0.02683,3
-0.079467,0.049444,-0.08647199999999999,3
0.071335,-0.0039649,-0.09248000000000001,3
0.13671,-0.010495,0.095443,3
-0.04183,-0.0027047,0.10901,3
-0.031539,-0.0018047,-0.05131,3
0.03607,0.0007889,-0.013173,3
-0.044304,0.0020056,0.0012624,3
-0.09314,0.0042174,-0.10216,3
-0.0022813,-0.0028151,-0.057254,3
0.035325,-0.00085715,0.16622,3
-0.00065832,-0.0026379,0.11264,3
0.11056,-0.018015,-0.016017,3
0.019578,0.0069901,-0.030036,3
-0.10828,0.06705800000000001,-0.047211,3
-0.0032091,0.047614,-0.051314,3
0.0501,0.009639,-0.023544,3
0.027671,0.005418,0.024314,3
-0.03148,-0.0078376,0.019385,3
-0.018575,-0.071797,-0.0049984,3
-0.008417900000000001,-0.098258,0.010525,3
0.021891,0.0092675,-0.0030003,3
0.034859,0.088713,0.0010524,3
-0.024668,0.084676,0.032069,3
0.007854399999999999,0.026851,0.032504,3
0.004939,-0.019699,0.036257,3
-0.09026000000000001,-0.014379,0.044018,3
-0.077115,-0.0032999,0.035792,3
0.028997,0.0016347,-0.0056338,3
0.07029100000000001,-0.021208,-0.06107,3
0.027945,-0.043834,-0.0068855,3
-0.019425,-0.032414,0.073171,3
-0.07234500000000001,-0.010783,0.071757,3
-0.056978,-0.0009316800000000001,-0.1867,3
0.051192,-0.012579,-0.14105,3
0.056326,-0.012205,0.11442,3
-0.022074,-0.0069777,0.08124000000000001,3
-0.026804,0.0084218,0.045199,3
-0.025692,0.019531,-0.013702,3
-0.045048,-0.00012713,-0.060733,3
0.051245,-0.0059413,-0.049892,3
0.067175,0.0038277,-0.025788,3
0.016394,0.0043713,0.03126,3
0.011187,-0.00012776,0.018557,3
-0.030815,-0.018088,-0.014405,3
-0.040349,-0.0068606,0.00498,3
0.0040868,-0.0089508,0.0151,3
0.034617,-0.0029818,0.0065117,3
0.017655,0.025493,0.019659,3
-0.010643,0.031271,-0.06429,3
0.0014279,0.041711,-0.2172,3
0.025181,0.054824,0.055467,3
0.0091655,0.06566,0.20068,3
-0.025821,0.014351,0.13951,3
-0.045164,-0.084066,0.1152,3
-0.025532,-0.10428,-0.12252,3
0.045438,-0.036742,-0.08605400000000001,3
0.042706,0.053462,-0.00083002,3
-0.0060175,0.052924,-0.056226,3
-0.033084,0.0045818,-0.041316,3
-0.034769,-0.013452,0.06132,3
-0.017974,-0.013999,0.11839,3
-0.008069700000000001,-0.01323,0.040958,3
-0.014613,-0.018926,-0.0076316,3
-0.066736,-0.029107,-0.0022928,3
-0.037459,-0.035466,0.0078561,3
0.098675,-0.040389,0.0057596,3
0.023799,-0.016975,0.0060765,3
-0.062032,0.0081125,0.047308,3
0.040279,0.023024,0.057107,3
0.012832,0.0078282,0.02822,3
-0.036508,-0.014629,-0.015436,3
-0.021425,-0.015904,-0.11519,3
-0.016419,-0.018886,-0.16367,3
0.031909,-0.008847900000000001,0.046198,3
0.051786,0.015905,0.12097,3
-0.018422,0.0064638,-0.014295,3
0.023937,-0.0021739,-0.055782,3
0.077053,0.011561,0.049758,3
0.0037229,-0.0041024,0.07067,3
0.034164,0.016351,-0.055684,3
-0.011318,0.027403,-0.19601,3
-0.069815,-0.019894,-0.26075,3
0.011088,-0.02389,-0.031617,3
0.053996,0.016043,0.18791,3
0.037293,0.020277,0.11831,3
0.043307,0.0045426,-0.046253,3
0.041203,0.017455,-0.050815,3
-0.004136,-0.001173,-0.0075356,3
-0.032775,0.017064,-0.044615,3
-0.025697,0.059392,-0.11326,3
-0.042511,0.063751,-0.0023266,3
-0.047687,0.035127,0.10076,3
0.014191,-0.0044212,-0.02228,3
0.075126,-0.073726,-0.027176,3
0.067291,-0.058539,0.08008899999999999,3
-0.076261,0.036331,0.055372,3
-0.14561,0.056625,0.011816,3
0.010952,0.043176,0.012312,3
0.11331,0.010642,0.024947,3
0.0057091,-0.035112,0.055997,3
-0.08229,-0.045317,-0.012472,3
0.00046685,-0.025753,-0.062642,3
0.026912,-0.009742799999999999,0.0020756,3
-0.018557,3.8758e-05,-0.020346,3
0.01083,-0.0041656,-0.053926,3
0.056349,0.0032249,0.055749,3
0.011415,-0.0040944,0.071197,3
-0.012398,-0.0046367,-0.03056,3
-0.001557,-0.0044675,-0.024051,3
-0.0020238,-0.023311,0.031105,3
0.0033925,-0.032355,0.030114,3
-0.012088,-0.012313,-0.056195,3
-0.018522,0.0034577,-0.086341,3
0.016948,0.0031402,-0.0042653,3
0.018661,0.010761,0.02874,3
0.0034173,0.012243,-0.06559,3
0.009340899999999999,-0.0075724,-0.06497799999999999,3
-0.015281,-0.010634,0.079356,3
0.010775,0.020489,0.075141,3
0.020736,0.019935,-0.004756,3
-0.038054,-0.0061296,0.018656,3
-0.029456,-0.009560900000000001,0.017942,3
0.006834,-0.0044312,0.0055404,3
-0.013193,-0.015072,0.030173,3
-0.067442,-0.01385,0.068222,3
-0.03319,0.011507,-0.0049844,3
0.0044681,0.036436,-0.032857,3
0.0017828,0.011918,0.0057039,3
0.04361,-0.058874,0.062948,3
0.009885100000000001,-0.059368,0.079051,3
-0.021089,-0.0034837,-0.050049,3
-0.075114,0.038385,-0.008223400000000001,3
-0.12334,0.056289,0.046704,3
0.0060855,0.044721,0.061794,3
0.090003,-0.022165,0.072893,3
-0.00094935,-0.054686,0.014193,3
-0.039574,-0.021017,-0.033864,3
-0.0076337,0.023993,-0.06446499999999999,3
0.011391,0.05651,-0.019437,3
0.061766,0.067061,-0.022034,3
0.042165,0.063028,0.0048389,3
-0.037239,0.027403,0.053187,3
-0.019119,-0.043667,-0.0034533,3
0.008064699999999999,-0.07940899999999999,-0.024945,3
0.070066,-0.024284,-0.010721,3
0.044613,0.012854,-0.031875,3
-0.013911,0.014249,-0.022399,3
0.01247,0.015698,0.0015465,3
0.0082145,0.0061085,-0.0036443,3
0.007886300000000001,-0.0033341,-0.0078931,3
0.012333,-0.0034096,-0.013588,3
0.039415,-0.015808,-0.011644,3
0.041314,-0.049499,-0.11715,3
-0.02426,-0.06601700000000001,-0.07038899999999999,3
-0.017544,-0.040226,0.16363,3
0.0061162,0.015212,0.02676,3
0.010072,0.019081,-0.04615,3
0.033172,-0.013599,0.042669,3
-0.016173,-0.027227,-0.027255,3
-0.0023054,-0.0034395,-0.052102,3
-0.0011712,0.025938,-0.0014271,3
-0.022903,0.01488,0.027624,3
-0.037119,0.0033674,0.022761,3
-0.018303,0.0101,-0.040368,3
0.030428,0.016901,-0.13991,3
0.014406,0.017456,-0.14073,3
-0.017396,0.0048891,0.10567,3
-0.038612,0.0062614,0.18592,3
0.001587,0.024855,-0.07685699999999999,3
0.045134,0.0091441,-0.1155,3
-0.0099521,-0.0072606,0.062586,3
-0.047096,-0.010185,0.059162,3
0.0016864,-0.0037945,-0.071631,3
0.039072,0.030825,-0.12598,3
-0.063405,0.026787,0.024979,3
-0.061235,-0.0041291,0.034581,3
0.048346,0.011997,-0.036155,3
0.039414,0.059124,0.07582800000000001,3
-0.0013459,-0.025064,0.07922,3
0.0098137,-0.10671,-0.014265,3
0.009682100000000001,-0.014512,-0.017787,3
-0.017554,0.037782,0.022768,3
-0.01669,0.026915,0.025589,3
-0.005341,0.022334,0.029174,3
0.0040888,0.015022,0.034505,3
0.0067382,0.0075616,0.0603,3
0.0019689,0.010188,0.069907,3
0.024924,0.010548,0.008988899999999999,3
0.031711,-0.0038331,-0.034367,3
0.0011042,-0.032892,-0.015897,3
-0.016502,-0.030355,-0.017161,3
-0.0018472,0.00073601,-0.0036185,3
0.013447,0.015859,0.017742,3
-0.00521,0.0056724,0.013072,3
-0.01837,-0.012691,0.016106,3
-0.027137,-0.012355,0.0025785,3
-0.013204,-0.014612,-0.035692,3
-0.0012425,-0.017046,-0.024754,3
0.023626,-0.01239,0.028069,3
0.036859,-0.017701,-0.026259,3
-0.040275,-0.032042,-0.23633,3
-0.026089,-0.03486,-0.11863,3
0.013149,0.0046855,0.24455,3
-0.0012291,0.047246,0.097495,3
0.0022618,0.0064745,-0.069191,3
0.012062,-0.022992,-0.012621,3
0.0052131,-0.00068644,0.005169,3
-0.031109,-0.00095152,0.003414,3
-0.044283,-0.0034834,-0.075769,3
0.0074234,-0.0073617,-0.09796299999999999,3
-0.022047,-0.013015,0.048196,3
-0.1263,-0.0067148,0.10344,3
0.037194,0.011331,0.0087753,3
0.17774,0.032009,-0.059725,3
-0.0074767,0.022892,-0.0071003,3
-0.040403,-0.001348,0.048962,3
-0.00039711,-0.017019,0.029056,3
0.00087927,0.011387,0.00025069,3
-0.004768,0.025293,-0.016682,3
-0.026509,-0.01678,-0.0031552,3
0.013944,-0.016943,0.0078151,3
0.043353,0.010779,-0.0047584,3
0.028221,0.018006,0.0027215,3
0.027212,0.0053114,-0.0014753,3
0.028186,-0.012549,-0.0025397,3
-0.010754,-0.022375,0.051496,3
-0.026959,-0.014977,0.036626,3
0.046752,0.0085988,-0.016965,3
0.054935,0.0026599,-0.020147,3
-0.066733,0.0028039,0.010622,3
-0.03512,0.0076871,0.037333,3
0.007133,-0.00061587,0.011203,3
-0.014723,-0.0015225,-0.008382000000000001,3
-0.017845,0.0033096,-0.0081797,3
-0.026719,0.020556,-0.005031,3
0.0072017,0.015266,-0.019604,3
0.062365,-0.00030525,-0.036172,3
0.0013607,0.017275,-0.0075116,3
-0.070631,0.025818,0.04195,3
-0.008334100000000001,-0.029256,0.028811,3
0.052363,-0.048605,-0.045792,3
-0.021955,0.0010483,-0.043231,3
-0.043779,0.018724,0.011679,3
0.024671,0.013196,0.06610000000000001,3
0.033875,0.008616,0.03674,3
-0.0099183,-0.0045668,-0.035308,3
0.0070557,-0.016052,-0.049843,3
0.02234,-0.0041002,-0.035247,3
-0.010162,-0.0093921,-0.028453,3
0.014636,-0.033584,0.053938,3
-0.0071872,-0.018848,0.11025,3
-0.01207,0.025811,-0.012745,3
0.09410200000000001,0.062584,-0.048159,3
-0.011388,0.094404,0.0072847,3
-0.086448,0.13691,0.043548,3
-0.003896,0.029028,0.053985,3
-0.011587,-0.089253,0.009085899999999999,3
-0.0057616,-0.10911,-0.0312,3
0.018714,-0.048388,-0.037091,3
-0.0071479,0.039923,-0.12351,3
0.049416,0.056736,-0.10048,3
0.028381,0.036641,0.12536,3
-0.050349,0.023018,0.14401,3
-0.083514,0.019978,0.026685,3
-0.0049917,-0.0062328,-0.030094,3
0.13134,-0.038866,-0.080391,3
-0.0015575,-0.046172,-0.050491,3
-0.039503,-0.042915,-0.056797,3
0.0021954,-0.05835,-0.021373,3
-0.028194,-0.058164,0.16927,3
-0.050939,-0.029552,0.082261,3
0.0054086,0.01164,-0.094251,3
0.0639,0.030342,-0.042159,3
0.020831,0.00071959,0.0013261,3
-0.055871,-0.004259,-0.00065981,3
-0.053716,-0.011495,-0.13635,3
0.034941,-0.019249,-0.06673,3
0.00023155,0.016183,0.13763,3
0.0089205,0.02446,-0.07488300000000001,3
0.04875,-0.022411,-0.025976,3
-0.015549,-0.013384,0.096078,3
-0.023952,0.016988,-0.0028493,3
-0.004941,0.010434,-0.0069918,3
0.024226,-0.0089567,-0.010787,3
0.029144,-0.021403,-0.013321,3
-0.029848,-0.011505,-0.016588,3
-0.067719,0.00011452,-0.0025399,3
-0.07140199999999999,0.0016647,0.021392,3
0.051103,-7.1306e-05,0.028787,3
0.19317,0.009013500000000001,0.009297100000000001,3
0.09438299999999999,0.0043188,-0.0065434,3
-0.14645,0.0080004,0.020858,3
-0.09961100000000001,0.016563,0.035859,3
0.054988,-0.0097211,0.040454,3
-0.037328,0.00040177,0.07510699999999999,3
-0.020473,0.015062,0.058359,3
0.12814,0.010493,-0.0041156,3
0.074568,0.0027331,-0.058983,3
-0.019539,-0.015336,-0.057846,3
-0.037384,-0.011867,-0.0010476,3
-0.03625,-0.0047764,-0.15357,3
-0.040469,0.017207,-0.31397,3
0.049166,0.014015,0.056514,3
0.046615,-0.01869,0.37843,3
-0.12022,-0.011102,0.17414,3
-0.082866,-0.009358200000000001,-0.02252,3
0.14454,-0.011957,-0.10197,3
0.08781600000000001,-0.011684,-0.12767,3
-0.040938,-0.0044461,-0.08049099999999999,3
-0.025295,-0.0013752,-0.0068955,3
-0.08597399999999999,-0.0011558,0.034794,3
-0.017893,0.00602,0.055607,3
0.043207,-0.0040958,0.04281,3
-0.12876,-0.0037165,0.05703,3
-0.1553,0.022902,0.017656,3
0.050084,0.026384,-0.013488,3
0.15772,0.01788,0.026806,3
0.057614,0.021684,0.019633,3
-0.022689,0.011374,0.00088986,3
-0.051581,-0.0020211,-0.032848,3
-0.086271,0.017281,-0.073297,3
0.055998,0.0093615,-0.021186,3
0.10007,-0.047909,-0.010733,3
-0.060689,-0.015378,0.022338,3
-0.033832,0.036782,0.06977,3
0.046489,0.053333,-0.058232,3
0.04295,0.043085,-0.07133100000000001,3
-0.026187,0.018916,-0.0011402,3
-0.036668,0.029001,-0.0056366,3
-0.046144,0.050374,-0.02476,3
0.033453,-0.016774,-0.00061264,3
0.056849,-0.12281,0.021662,3
-0.029669,-0.058715,-0.010401,3
-0.047072,0.054461,-0.013743,3
0.035872,0.06274200000000001,0.046847,3
0.049433,0.038136,0.042839,3
-0.041013,0.052492,-0.001593,3
-0.056746,0.04518,-0.0044132,3
0.0065513,-0.032773,0.016673,3
0.065181,-0.053085,0.030799,3
-0.016157,0.0066617,0.020547,3
-0.092712,-0.0013791,-0.04958,3
0.06664200000000001,-0.054338,-0.14231,3
0.10342,-0.048484,-0.039301,3
-0.014273,-0.004459,0.12528,3
-0.03982,0.003623,0.07371900000000001,3
-0.00076734,-0.0057151,0.0083678,3
0.020742,-0.00013381,0.011964,3
0.009041,0.0034526,0.0064031,3
0.023458,-0.012367,-0.013455,3
0.040515,-0.026617,-0.010769,3
0.028053,-0.013774,-0.011297,3
-0.014251,-0.014845,-0.020112,3
-0.021163,-0.028615,-0.0036746,3
-0.020267,-0.01626,0.03206,3
-0.019843,-0.00019944,0.056358,3
0.0030499,-0.010244,0.02365,3
0.04632,-0.021705,-0.026651,3
0.015313,0.0011426,-0.019687,3
-0.032022,0.018516,-0.0018574,3
-0.0087194,-0.0013559,0.00095659,3
0.02816,-0.014337,-0.12823,3
0.0035725,-0.020563,-0.23367,3
-0.027097,-0.033474,0.050225,3
0.0062774,-0.0054419,0.22493,3
0.014848,0.045566,0.032314,3
0.012938,0.031161,-0.050034,3
0.012297,-0.009135600000000001,-0.10243,3
-0.01759,-0.001499,-0.047525,3
-0.09611599999999999,0.0070034,0.15313,3
-0.058952,-0.0036934,-0.010428,3
0.11432,0.012929,-0.14649,3
0.11255,0.034849,0.034904,3
0.045651,0.0056572,0.053342,3
-0.059225,-0.028669,0.018046,3
-0.11783,-0.00355,0.045334,3
-0.05894,0.0076516,0.078721,3
0.025336,-0.011491,0.10796,3
0.022873,-0.015737,0.090917,3
0.011375,-0.0044664,-0.0032399,3
0.060548,0.0071843,-0.017934,3
0.0012943,-0.0061201,-0.10509,3
-0.055457,-0.01122,-0.14905,3
-0.00036384,-8.159e-05,0.056871,3
0.044479,-0.02222,0.1436,3
-0.018817,-0.0054337,0.017852,3
-0.03068,0.012092,-0.014099,3
0.008453,-0.025481,-0.00078965,3
0.012947,-0.037365,0.0063618,3
0.043297,0.0038115,0.011829,3
0.051346,0.047446,0.0021813,3
-0.016938,0.044766,-0.023788,3
-0.049929,0.0023397,-0.12523,3
-0.0007789300000000001,-0.040444,-0.13843,3
0.015814,-0.04721,0.16318,3
0.010965,0.017938,0.11449,3
0.0085965,0.056955,-0.081604,3
-0.022178,0.020937,-0.020785,3
-0.13126,0.0068605,0.010462,3
-0.13314,0.0010177,-0.07643800000000001,3
0.10714,-0.013212,-0.15736,3
0.15974,-0.0013417,0.055289,3
-0.05208,0.041747,0.13986,3
-0.052327,0.06802900000000001,-0.0052553,3
-0.015453,0.0509,-0.025881,3
-0.10482,0.021678,-0.019432,3
-0.089603,0.024885,-0.023227,3
-0.012972,-0.0068476,-0.0065386,3
0.12649,-0.019002,0.0045437,3
0.031749,0.015381,0.012616,3
-0.16766,-0.012078,0.015926,3
-0.014068,-0.0012417,-0.0057998,3
0.14244,0.0065242,0.04557,3
0.009535399999999999,-7.483e-05,0.06558899999999999,3
-0.030925,0.019948,-0.046465,3
0.049839,0.038519,-0.068104,3
0.043414,-0.009952000000000001,0.060967,3
-0.026913,-0.065716,0.1087,3
-0.013323,-0.031395,0.027592,3
0.030812,0.0076514,-0.024009,3
0.042966,0.011505,-0.020652,3
0.033536,0.016163,0.0016313,3
0.013456,-0.013696,0.0088763,3
0.028417,-0.07017900000000001,0.009550700000000001,3
0.038132,-0.042161,-0.0034944,3
-0.009875399999999999,0.015881,0.008313299999999999,3
-0.044974,0.0054509,-0.03197,3
-0.0070219,-0.020887,-0.19865,3
-0.034533,-0.034495,-0.26655,3
-0.019853,-0.010681,0.12004,3
0.07813100000000001,0.019765,0.31928,3
0.039443,0.01618,0.043072,3
-0.034226,0.0011521,-0.075257,3
-0.009674,-0.026992,-0.078528,3
0.0082148,-0.052932,-0.084302,3
0.0019693,-0.028525,-0.098082,3
0.0539,0.021835,0.010854,3
0.007151,0.0086318,0.038285,3
-0.089895,0.0048538,-0.07582,3
-0.08096200000000001,0.016,-0.078581,3
0.040141,0.0099725,0.10918,3
0.11519,0.014086,0.056471,3
-0.056277,0.0067801,-0.14375,3
-0.025756,0.0086683,9.7538e-05,3
0.11959,0.0066338,0.1644,3
0.070088,0.053617,0.025529,3
-0.0038704,0.068661,-0.063137,3
-0.068956,-0.0016457,-0.024342,3
-0.05024,-0.022194,-0.02454,3
-0.011336,-0.025508,-0.0006801,3
-0.044629,-0.028258,0.008004300000000001,3
-0.10718,0.019575,0.021095,3
0.039837,0.026088,0.0075214,3
0.17046,-0.0027326,-0.011242,3
0.022351,-0.017685,0.065084,3
-0.062969,-0.028679,0.08465,3
-0.044915,-0.01917,0.037121,3
0.00075743,0.0066762,0.045864,3
0.0080613,-0.0056786,-0.015644,3
-0.010718,-0.021826,-0.048381,3
-0.030892,-0.032181,0.0055558,3
-0.049472,-0.044041,-0.013283,3
-0.06264,-0.014484,-0.028854,3
-0.018968,0.022487,0.07316400000000001,3
0.061098,0.0005803199999999999,0.098277,3
0.049849,-0.010602,-0.06543300000000001,3
-0.10358,0.0046799,0.009675599999999999,3
-0.15815,0.009615800000000001,0.07122000000000001,3
0.052346,0.018709,-0.06598999999999999,3
0.151,0.0086233,0.08022700000000001,3
0.12607,-0.00081563,0.09628299999999999,3
0.010362,0.023945,-0.15291,3
-0.13698,0.01726,-0.0013212,3
-0.052571,-0.028376,0.093761,3
0.01949,-0.028916,0.044231,3
0.0006576,-0.009497200000000001,0.027738,3
-0.016344,0.0072809,-0.048455,3
0.062327,0.040523,-0.064119,3
0.11555,0.056555,-0.022069,3
0.017275,0.046843,-0.0012049,3
-0.032136,0.021582,0.019847,3
-0.0066196,0.020334,0.035235,3
0.01542,-0.012518,0.021858,3
0.0018686,-0.025408,0.0081016,3
-0.0054548,0.030726,-0.13829,3
0.029877,-0.014055,-0.11299,3
-0.019317,-0.027577,0.11583,3
-0.10631,0.012836,0.035643,3
-0.07224899999999999,0.009808900000000001,-0.032629,3
0.025583,0.018218,-0.01627,3
0.08155800000000001,0.030268,-0.032102,3
-0.0036433,-0.012848,0.0056471,3
-0.08881799999999999,-0.056098,0.034933,3
0.056694,-0.030129,0.0048566,3
0.068367,0.022809,-0.007782,3
-0.0038387,0.0068711,-0.009941,3
-0.04542,-0.035699,-0.028072,3
-0.07341300000000001,-0.040951,-0.017664,3
0.020002,-0.026734,0.011478,3
0.042843,-0.0091933,-0.09816900000000001,3
0.043073,-0.0083065,-0.10766,3
0.031653,-0.014118,0.13065,3
0.009881300000000001,-0.00031871,0.11109,3
0.00056477,0.014945,-0.043502,3
0.00086637,0.037973,-0.070547,3
0.00080884,0.030544,-0.1861,3
-0.0064266,0.0004104,-0.21556,3
0.029503,0.0014017,0.092359,3
0.016307,-0.0076286,0.20209,3
-0.011298,-0.031908,0.026594,3
-0.00066027,-0.011532,-0.034937,3
-0.012302,0.01183,-0.032561,3
-0.0035616,0.022182,-0.023472,3
-0.00095498,0.020678,-0.0084292,3
-0.05086,0.030792,0.01527,3
-0.045643,0.034666,0.023003,3
0.019421,-0.029564,0.049295,3
0.027508,-0.068036,0.049323,3
0.028694,-0.014654,-0.021528,3
-0.035353,0.011153,0.0060876,3
-0.10594,-0.0065096,0.067271,3
-0.028151,0.003923,0.057404,3
0.10312,0.027631,0.016519,3
0.052547,0.021567,-0.0031708,3
-0.034386,-0.011632,0.0039587,3
-0.027889,-0.031993,0.0071016,3
-0.019859,-0.023086,0.0032844,3
-0.013816,-0.019595,-0.0084289,3
-0.0028084,-0.011229,-0.008276499999999999,3
0.011777,0.0047383,-0.0023385,3
0.0064641,-0.0041472,0.0003947,3
0.0051521,-0.01763,0.0018649,3
0.023626,-0.008452400000000001,-0.0023142,3
0.021507,0.009803299999999999,-0.0044478,3
0.0097819,0.020047,-0.00054838,3
0.0059106,0.009855600000000001,-0.00051129,3
0.0071646,0.0057039,-0.0021041,3
-0.002771,0.0073283,0.0041933,3
-0.0051496,0.0089683,-0.0014772,3
-0.0013545,-0.0084394,0.011569,3
-0.0045901,-0.024091,0.047904,3
0.0039922,0.0061411,0.05372,3
0.010248,0.017939,0.046397,3
-0.0015659,0.01088,-0.0029971,3
-0.0072161,0.015854,-0.049272,3
-0.017202,0.008305099999999999,-0.036603,3
-0.010289,0.0010225,-0.0077249,3
-0.00022156,0.0015491,0.023069,3
-0.0021344,0.0016308,0.028581,3
0.0049821,0.0049851,0.017332,3
0.0015675,0.0024567,-0.00025347,3
0.00096187,0.0020285,-0.012058,3
0.0014849,0.0049856,-0.014269,3
-0.0044319,0.0047472,-0.016584,3
-0.00093997,0.0035643,-0.015364,3
0.0040182,-0.0041228,-0.017946,3
0.0030871,-0.0055118,-0.019245,3
0.0059135,0.0085089,-0.018488,3
0.0069789,0.013942,-0.017583,3
-0.014271,0.0025318,-0.009186,3
-0.027195,-0.00021098,-0.0060219,3
0.0049819,0.0011991,-0.010542,3
0.023132,-0.004294,-0.012951,3
0.00063751,-0.0046427,-0.010459,3
-0.0016941,0.0040434,-0.0041055,3
0.0075201,0.010168,0.00017644,3
0.0041889,0.0031605,0.0020722,3
0.0039192,-0.0017185,-0.0012772,3
0.011243,0.0073705,-0.0038693,3
0.0088862,0.0074837,-0.0019898,3
0.0068462,0.0051859,0.0044232,3
0.0062492,0.007062,0.0031182,3
0.0041242,0.0060172,0.00080445,3
0.0063278,0.0059671,0.006172,3
0.0069652,0.0029681,0.0029702,3
0.0053898,0.0036239,-0.0041597,3
0.003424,-0.0033222,-0.0073323,3
0.0046862,-0.0076002,-0.0022128,3
0.0060001,-0.0041235,0.0043072,3
0.0036749,-0.0049461,0.0017085,3
0.0022479,-0.0061202,0.0023939,3
0.002489,-0.0056181,0.00053462,3
0.00017877,-0.0013805,-0.0029045,3
0.00011918,-0.0035516,-0.0020176,3
0.0010714,-0.0037595,-0.002949,3
-0.0022512,-0.002042,0.0013388,3
-0.00033706,-0.0049323,0.0030341,3
0.0012515,-0.0074881,-0.00082749,3
-0.0021184,-0.0073375,-0.00047527,3
-0.0027125,-0.0063515,-0.0014352,3
-0.0096133,-0.0068336,-0.0016529,3
-0.012292,-0.0061601,-0.0023696,3
-0.0075108,-0.0031629,-0.0020192,3
-0.010409,-0.0012583,-0.0003786,3
-0.015395,-0.0018723,0.00083508,3
-0.014785,-0.0053637,0.00033638,3
-0.014603,-0.0040386,0.0024554,3
-0.010073,-0.0043939,0.002062,3
-0.0087638,-0.0082848,0.00056827,3
-0.013522,-0.0075397,0.0026594,3
-0.0162,-0.0049195,0.0013075,3
-0.01676,-0.0051837,0.0016416,3
-0.014,-0.0064082,0.00057366,3
-0.009493700000000001,-0.0065476,0.0027243,3
-0.012186,-0.0078951,0.0044348,3
-0.015195,-0.007677,0.0025788,3
-0.016113,-0.008751999999999999,-0.0027045,3
-0.018889,-0.009679500000000001,-0.0030995,3
-0.017684,-0.009177599999999999,-0.0038772,3
-0.007893799999999999,-0.0065763,-0.0026383,3
-0.0031878,-0.00072456,0.0029439,3
-0.0044184,-0.00031261,0.0039189,3
0.00045385,-0.0014402,0.0019567,3
0.009835,0.0019599,0.0018947,3
0.012528,0.0051395,0.0024186,3
0.014833,0.0052298,0.0044937,3
0.020181,0.013434,0.0047453,3
0.015301,0.017493,0.00036742,3
0.0042116,0.0078218,0.0019121,3
0.015799,0.009864599999999999,0.0098765,3
0.031337,0.013232,0.010127,3
0.034989,0.012836,0.0067059,3
0.043051,0.019399,0.0065557,3
0.038152,0.012783,0.0041959,3
0.020187,0.0066385,0.00084911,3
0.015535,0.0088497,0.0024167,3
0.024551,0.013303,0.0072702,3
0.014793,0.008189699999999999,0.0027233,3
-0.016871,-0.012844,-0.007096,3
-0.023972,-0.014479,-0.0077544,3
-0.0062686,-0.004585,-0.00091372,7
0.0057156,-0.00044765,0.0036235,7
0.0025405,0.0015602,0.0038908,7
-0.010743,-0.0022914,0.0013837,7
-0.023318,-0.010014,-0.00083444,7
-0.029197,-0.011608,-0.0015729,7
-0.027267,-0.0078066,-0.0011905,7
-0.021097,-0.0089865,-0.0008915,7
-0.019268,-0.011423,-0.0033083,7
-0.016434,-0.0077625,-0.0045479,7
-0.0079591,0.002028,0.001364,7
-0.0010224,0.009246000000000001,0.0036928,7
0.0025908,0.007536,0.0041007,7
0.0022104,0.0036777,0.0025698,7
0.0063494,0.0059066,-0.00038304,7
0.013873,0.013012,0.0032091,7
0.013319,0.015899,-0.0023995,7
0.0060394,0.013835,-0.0064565,7
0.01326,0.010129,0.0040301,7
0.011013,-0.003271,0.0043908,7
-0.0031796,-0.015536,-0.0020353,7
0.001688,-0.012514,0.0048126,7
0.012491,0.001463,0.0035701,7
0.01685,0.010238,-0.0026758,7
0.020027,0.016215,0.0018372,7
0.017394,0.011193,-0.002799,7
0.0061095,0.0030794,-0.0115,7
0.0018882,0.0045792,-0.0087714,7
-0.0014057,0.0061462,-0.0085255,7
-0.0088389,0.009147499999999999,-0.0067833,7
-0.021944,-0.0076193,-0.0052184,7
-0.02277,-0.027405,-0.0078545,7
-0.0052036,-0.028783,-0.0027958,7
0.0010954,-0.019383,-0.0038574,7
0.0023139,-0.0011205,-0.0098601,7
0.00041139,0.0058149,-0.012026,7
-0.0027526,0.0040272,-0.0084939,7
0.004645,0.0035979,-0.0040024,7
0.0063403,0.0062734,-0.0044088,7
0.0079615,0.015754,-0.0039652,7
0.012963,0.0186,-0.0022597,7
0.019123,0.015635,0.00082389,7
0.025138,0.019809,0.0050076,7
0.021731,0.013466,0.0023874,7
0.020133,0.0070985,-3.53e-05,7
0.024128,0.019244,0.0008443600000000001,7
0.021731,0.017621,0.0046326,7
0.016408,0.00057703,0.0046606,7
-0.0017995,-0.014814,0.00055642,7
-0.01445,-0.018146,0.00053554,7
-0.0016101,-0.011513,0.0032116,7
0.009221,-0.0030898,0.0083252,7
0.0039812,-0.0011398,0.0066234,7
-0.0030351,-0.010224,0.0013486,7
-0.0071008,-0.021042,0.00053309,7
-0.014925,-0.025885,0.001201,7
-0.018132,-0.030052,0.00424,7
-0.018199,-0.025321,0.01223,7
-0.019717,-0.017898,0.007804,7
-0.030647,-0.036732,-0.0023687,7
-0.038897,-0.047185,-0.0053558,7
-0.040768,-0.042375,-0.002447,7
-0.032316,-0.028105,0.00051022,7
-0.012437,-0.01079,0.00093904,7
-0.0039602,-0.0007369399999999999,-0.0051866,7
-0.00076589,0.017186,-0.0055608,7
-0.0012514,0.032378,-0.00064576,7
-8.513e-06,0.036132,-0.0068826,7
0.0046577,0.042511,-0.012017,7
0.0028892,0.042844,-0.006852,7
-0.019798,0.014885,-0.0033977,7
-0.03223,-0.008639000000000001,-0.0041836,7
-0.0077849,0.001691,-0.00021947,7
0.010511,0.013464,0.0058356,7
0.00018625,0.0070283,0.0058555,7
-0.00745,0.010681,0.0050425,7
-0.0071612,0.018517,0.0030891,7
-0.013699,0.018299,-0.002454,7
-0.015121,0.020055,-0.0043599,7
-0.013755,0.0063759,-0.0076006,7
-0.01172,-0.013092,-0.0041985,7
-0.021576,-0.02716,-0.00074608,7
-0.030655,-0.037628,0.009983000000000001,7
-0.025957,-0.026874,0.023117,7
-0.020742,-0.012914,0.011875,7
-0.028879,-0.015402,0.0018863,7
-0.02683,-0.019543,0.002802,7
-0.009332,-0.011727,0.0060822,7
0.0038696,-0.0011004,0.0085839,7
0.007996400000000001,0.012098,0.013117,7
0.0063132,0.011814,0.017185,7
0.001822,-0.0028388,0.0096582,7
-0.0035868,-0.004926,-0.0029321,7
-0.0018485,0.00025297,-0.0043668,7
0.0062998,0.00071547,0.0032275,7
0.013108,0.0017122,0.0077951,7
0.0015803,5.0736e-05,0.0056574,7
0.0011153,-0.0017001,0.0011745,7
0.0258,0.0067426,-0.0018725,7
0.044811,0.022304,-0.0049142,7
0.03861,0.022288,-0.0073694,7
0.034302,0.017024,-0.0074054,7
0.032387,0.017425,-0.0048468,7
0.027868,0.019694,-0.004402,7
0.040864,0.019355,-0.0057463,7
0.055219,0.013462,-0.0017293,7
0.057302,0.019526,0.0036434,7
0.040109,0.0076299,0.0013491,7
0.02486,-0.012326,-0.001066,7
0.039261,0.0019808,-0.0012063,7
0.047626,0.022246,-0.0070484,7
0.036984,0.028732,-0.015022,7
0.034532,0.032606,-0.012945,7
0.036716,0.029103,-0.0058739,7
0.031235,0.012778,-0.00073081,7
0.023837,-0.0038696,0.0037333,7
0.002298,-0.018959,0.00052265,7
-0.002231,-0.019514,0.0045154,7
0.008443300000000001,-0.018974,0.0085392,7
-0.0057306,-0.037386,-0.0011993,7
-0.012385,-0.025403,-0.0077409,7
-0.0054476,-0.0034348,-0.008480100000000001,7
-0.0062036,-0.0036204,-0.0047712,7
-0.012707,-0.0060013,0.0036923,7
-0.016976,-0.012598,0.0066817,7
-0.018434,-0.011576,0.0032322,7
-0.010642,-0.0041332,0.0040859,7
-0.0058615,-0.0079857,-0.0011149,7
-0.020035,-0.01813,-0.0042124,7
-0.024914,-0.017773,0.0026366,7
-0.021628,-0.010844,0.00095391,7
-0.01571,-0.009850100000000001,0.0020239,7
-0.014138,-0.0045029,0.0019691,7
-0.035592,-0.010837,-0.0055617,7
-0.025864,0.0013098,-0.0023558,7
-0.0094681,0.014339,0.0025356,7
-0.017698,0.0059301,0.0014331,7
-0.018473,0.0058461,0.00086846,7
-0.010121,0.013727,0.0012719,7
-0.009589200000000001,0.019029,0.0030356,7
-0.012883,0.015624,0.0032695,7
-0.016941,0.0074475,-0.001006,7
-0.022915,0.0025551,-0.0061905,7
-0.024048,-0.0064348,-0.0047949,7
-0.027743,-0.0057492,0.00085589,7
-0.020094,0.0024315,0.0079326,7
-0.016194,-0.0030961,0.0072986,7
-0.025628,-0.0061721,-0.0010678,7
-0.021293,0.0015317,-0.0024248,7
-0.0075882,0.0039632,-0.0015798,7
-0.0048411,-0.0033467,-0.0020976,7
-0.0077911,-0.0055779,-0.0022089,7
-0.01124,0.0014733,-0.0015023,7
-0.011903,-0.00028223,-0.0021457,7
-0.008026500000000001,-0.0042763,-0.0054249,7
-0.0062063,-0.0027245,-0.0038652,7
-0.0043178,-0.0039687,-0.001476,7
-0.0047454,-0.0095286,0.0034195,7
-0.008212799999999999,-0.012824,0.001851,7
-0.01133,-0.011226,-0.007804,7
-0.009257400000000001,-0.013517,-0.0083476,7
-0.0031865,-0.013344,-0.001926,7
0.0017394,-0.0026296,0.00039783,7
-0.0015763,-0.0003354,-0.0033547,7
-0.0031129,-0.0067607,-0.001762,7
-0.00035896,-0.0072807,-0.001186,7
0.0014266,-0.0109,-0.0067935,7
0.0027216,-0.010591,-0.0011588,7
0.0011163,-0.0055742,0.0039728,7
0.0011959,0.0011638,0.0036084,7
0.0057942,0.0042782,0.009434,7
0.011443,0.0039894,0.009887999999999999,7
0.016241,0.0039034,0.0080328,7
0.014784,0.0044521,0.01245,7
0.013847,0.0037394,0.011944,7
0.012355,0.0015001,0.0015803,7
0.010774,0.00029298,-0.00062216,7
0.0065717,-0.0038908,0.00074317,7
0.0026118,-0.0030785,-0.0010406,7
0.008077900000000001,0.0049311,-0.0019856,7
0.01158,0.010014,-0.0019832,7
0.010406,0.009377099999999999,-0.0015939,7
0.011676,0.0057035,-0.0054361,7
0.010101,0.0071978,-0.0079541,7
0.0065842,0.008238199999999999,-0.0059534,7
0.0061783,0.0088711,-0.0042451,7
0.0042691,0.0092426,-0.0045018,7
0.0027011,0.0077532,-0.007916599999999999,7
0.0070477,0.014262,-0.0084788,7
0.008378200000000001,0.017024,-0.0088723,7
0.0081931,0.016416,-0.0085793,7
0.009407,0.013317,-0.007935299999999999,7
0.009257700000000001,0.0092455,-0.0083382,7
0.01237,0.009990300000000001,-0.006468,7
0.0084274,0.00012102,-0.0079782,7
0.00050396,-0.0051403,-0.00868,7
0.009058999999999999,0.0026692,-0.0031259,7
0.019245,0.0078847,-0.0061939,7
0.012425,0.0055695,-0.0080172,7
0.0063771,0.0015207,-0.0025003,7
0.011833,0.00089895,0.0023324,7
0.016739,-0.0024396,0.002339,7
0.016264,-0.0037398,0.00038621,7
0.013301,-0.0020691,-0.00263,7
0.015311,-0.0034719,-0.0040741,7
0.020502,-0.0022018,0.0052118,7
0.019033,0.0019109,0.01189,7
0.011278,-0.0031238,0.013046,7
0.007758,-0.0096706,0.007763,7
0.012834,-0.010412,0.0077694,7
0.0084145,-0.013969,0.009409799999999999,7
0.0025846,-0.0074151,0.0050414,7
0.0036339,-0.001192,0.0029711,7
0.0062678,-0.0078659,0.0084399,7
0.0024221,-0.011034,0.0095846,7
-0.0059703,-0.009270799999999999,0.0019879,7
-0.0047229,-0.0040215,0.0035243,7
-0.0037528,-0.0075874,0.007889699999999999,7
-0.010269,-0.013838,0.0063705,7
-0.012471,-0.0084943,0.010028,7
-0.0052554,-0.0069482,0.010253,7
-0.0098651,-0.0061185,0.0046806,7
-0.013433,-0.001039,0.004684,7
-0.01369,-0.0010997,0.008467300000000001,7
-0.016166,-0.0014272,0.009453,7
-0.018668,0.0024666,0.0057269,7
-0.017577,0.0027843,0.0030738,7
-0.011764,-0.0019725,0.0030456,7
-0.014874,-0.00094536,0.0042789,7
-0.019102,0.0035145,0.0049574,7
-0.018988,0.0041239,0.0072001,7
-0.021602,0.0056307,0.0068337,7
-0.021255,0.008536999999999999,0.0062259,7
-0.017385,0.010713,0.0062961,7
-0.013378,0.011478,0.010291,7
-0.018458,0.009219099999999999,0.010516,7
-0.031574,0.0043048,0.0075538,7
-0.025564,0.0042763,0.0059581,7
-0.009952799999999999,0.0030558,0.0055542,7
-0.0066696,0.0069216,0.0071314,7
-0.0081114,0.010178,0.0041334,7
-0.0061745,0.010337,-0.0007452099999999999,7
-0.010032,0.0077464,0.0023898,7
-0.0093042,0.0007042,0.001867,7
-0.005518,-0.0027869,-0.0056931,7
-0.0052167,-0.00023444,-0.0070173,7
-0.0061891,-0.00016148,-0.0047221,7
-0.0039947,-0.0052244,-0.0028162,7
-0.00018098,-0.0071339,-0.0074767,7
0.00089862,-0.009928299999999999,-0.010307,7
-6.7096e-06,-0.009192799999999999,-0.0053588,7
0.0050917,-8.8161e-05,-0.0027479,7
0.008781199999999999,0.0051243,-0.0095783,7
0.0081023,0.0021261,-0.013575,7
0.0073105,0.002397,-0.012696,7
0.009290700000000001,0.0048296,-0.013562,7
0.013211,0.0073935,-0.0097377,7
0.011527,0.0030411,-0.0065892,7
0.010429,-0.00080041,-0.0094203,7
0.0098545,-0.0038499,-0.010059,7
0.010258,-0.011276,-0.009469200000000001,7
0.006572,-0.013237,-0.011527,7
0.0020155,-0.0059988,-0.013892,7
0.0050712,0.0026379,-0.015976,7
0.005649,0.0028114,-0.0074257,7
0.006559,-0.00083303,-0.0057513,7
0.0069829,-0.0060257,-0.010155,7
0.0015892,-0.007643,-0.0090172,7
0.0036881,-0.0047171,-0.0046882,7
0.0067218,-0.0045597,-0.0014952,7
0.013025,-0.0041537,-0.0021978,7
0.012105,-0.0024111,-0.0070707,7
0.007825500000000001,0.0015682,-0.008458800000000001,7
0.007831299999999999,0.0041688,-0.0047425,7
0.0009083,0.0022797,0.0020123,7
-0.0024682,0.0022202,0.003851,7
0.0010178,0.0057461,-0.0024122,7
0.002751,0.0057086,-0.0026522,7
0.00074743,0.0023464,-0.0047023,7
0.0015502,0.0044252,0.00028663,7
0.0021303,0.0049315,0.0049342,7
0.0033818,-0.00058411,-0.0011172,7
0.001521,0.0016973,-0.00019317,7
-0.0025194,0.0058484,-0.00076661,7
-0.0034002,0.0029153,-0.0018852,7
-0.0045178,-0.00049674,0.0018968,7
-0.00025176,-0.0030371,0.0024202,7
0.0033274,-0.001779,0.0038932,7
0.0036771,0.0040487,0.0046197,7
0.00058265,0.0051353,0.0077313,7
0.00049237,0.0038963,0.007307,7
-0.00075723,0.002597,0.005027,7
-0.0036893,0.0009283,0.0032164,7
-0.0023667,0.0041311,0.00094645,7
-0.0010571,0.0025685,-0.0013532,7
0.0045863,-0.0031582,-0.0010371,7
0.0042163,-0.0030568,0.0012358,7
0.0013353,-0.0049973,0.0012472,7
0.0031514,-0.008148799999999999,0.0023796,7
0.010134,-0.0057273,0.0042235,7
0.01394,-0.0063869,0.0031942,7
0.011828,-0.0087741,0.0027952,7
0.0098891,-0.009898799999999999,0.0044864,7
0.01071,-0.010248,0.0054723,7
0.014815,-0.007927099999999999,0.006085,7
0.014343,-0.0051912,0.0060981,7
0.011626,-0.0042171,0.010635,7
0.014176,-0.0059867,0.010562,7
0.018695,-0.0094474,0.0075169,7
0.015444,-0.009435300000000001,0.0081796,7
0.009581299999999999,-0.010032,0.0070953,7
0.0079801,-0.009056099999999999,0.0063345,7
0.0049621,-0.004322,0.0076252,7
-0.00082827,-0.0034478,0.008290799999999999,7
-0.007377,-0.0032131,0.0038159,7
-0.012268,-0.0050357,-0.0017409,7
-0.010433,-0.0063658,-0.0036232,7
-0.007915500000000001,-0.0028035,0.0016929,7
-0.008531199999999999,0.0032285,0.0049462,7
-0.009776999999999999,0.0047425,0.0024116,7
-0.014377,0.0034277,-0.00019439,7
-0.012787,0.0063131,-0.0038568,7
-0.009182299999999999,0.0057603,-0.0037045,7
-0.012363,0.0029137,0.00014508,7
-0.018472,0.0040192,0.0018293,7
-0.018592,0.0070587,-0.0040234,7
-0.016712,0.0058096,-0.0060855,7
-0.016195,0.0012229,-0.0016962,7
-0.017773,0.0027945,-0.0009846,7
-0.016633,0.0068583,-0.0001013,7
-0.0091851,0.011899,2.2267e-05,7
-0.0028392,0.012167,-0.0027478,7
-0.0017992,0.008700299999999999,-0.0045164,7
-0.0015267,0.0075182,-0.0028105,7
-0.005042,0.0018877,-0.00017708,7
-0.0041743,0.0071473,0.0016527,7
0.0027054,0.011961,0.0038883,7
0.005674,0.009358200000000001,0.0033717,7
0.0044208,0.0064696,0.0065587,7
0.0028414,0.0073021,0.0087793,7
0.0067001,0.009523999999999999,0.0051556,7
0.00873,0.0013347,0.0044737,7
0.0047711,-0.0034358,0.0003537,7
0.0020187,-0.00086675,-0.003028,7
0.0057853,-0.002829,0.0031143,7
0.0024726,-0.0022401,0.0086488,7
-0.0034407,-0.0023829,0.0089423,7
-0.0035743,-0.0052136,0.006793,7
-0.0051843,-0.0095862,-0.0011226,7
-0.0061727,-0.0090265,-0.0038342,7
-0.0014083,-0.001267,-0.00073267,7
-0.0011708,0.0039995,0.0002268,7
-0.0072471,0.0037071,-0.00099647,7
-0.0091202,0.0083315,-0.0022295,7
-0.0074943,0.014748,-0.0027065,7
-0.002964,0.015426,-0.003715,7
-0.0048881,0.016467,-0.00020616,7
-0.0038639,0.017227,-0.00011884,7
-0.00057708,0.019022,-0.0048913,7
0.00018982,0.013949,-0.008836699999999999,7
-0.0010461,0.0062549,-0.01223,7
-0.0006147700000000001,0.0012241,-0.011988,7
-0.0016481,0.0028744,-0.0066724,7
-0.0035891,0.012379,-0.0040596,7
0.0038165,0.012693,-0.0081355,7
0.004751,-0.0023033,-0.011238,7
-0.0012664,-0.014019,-0.010956,7
-0.00034397,-0.017374,-0.012822,7
1.7442e-06,-0.012392,-0.010022,7
0.0021134,-0.0041635,-0.007966300000000001,7
0.0089674,-0.011404,-0.00662,7
0.0088126,-0.017758,-0.0074342,7
0.0038858,-0.014599,-0.0069788,7
0.0039616,-0.01265,-0.00072274,7
0.0062813,-0.017122,-0.0011425,7
0.0045233,-0.021053,-0.0055341,7
0.003597,-0.015769,-0.0056372,7
0.0032202,-0.009996700000000001,-0.0043277,7
0.00097726,-0.008071500000000001,-0.0050225,7
-0.000888,-0.0071274,-0.0032834,7
-0.0017769,-0.0030001,-0.0012246,7
4.7615e-05,-0.0028624,-0.0017287,7
0.0016925,0.00039975,-0.0048513,7
0.0047852,8.9903e-05,-0.00075737,7
0.0083724,-0.0028868,0.0038226,7
0.0096813,0.003479,0.0019871,7
0.009442799999999999,0.008669400000000001,0.0039825,7
0.011205,0.0069551,0.0048809,7
0.010408,0.0067938,0.0053635,7
0.0060712,0.010683,0.0057075,7
0.008210800000000001,0.0070717,0.0074416,7
0.009082700000000001,0.0048456,0.0077932,7
0.0053633,0.00080207,0.0028152,7
0.0018614,-0.0041399,0.0017816,7
-0.0032243,-0.0020893,-0.0011859,7
-5.276e-05,0.0028128,0.00086334,7
0.0022182,0.004519,0.0054182,7
-0.0025256,-5.723e-05,0.006026,7
-0.003199,0.0026986,0.0067006,7
0.0037992,0.0032286,0.0061266,7
0.0065736,-0.0028189,0.0076635,7
-0.0022085,-0.0079723,0.0050872,7
-0.0065007,-0.010145,0.0026302,7
-0.0016333,-0.0030503,0.008158500000000001,7
-0.0012859,0.00065119,0.0092931,7
-0.0039438,-0.00040683,0.010719,7
-0.0058596,-0.0033523,0.018784,7
-0.0059651,-0.0091506,0.010867,7
-0.0074526,-0.011204,0.0014016,7
-0.0024142,-0.008923199999999999,0.0074052,7
0.00095059,-0.0058596,0.013291,7
-0.0072733,-0.0076371,0.0093229,7
-0.0094111,-0.0048423,0.011372,7
-0.0068822,-0.0032766,0.014092,7
-0.0093109,-0.0045906,0.011362,7
-0.0070355,-0.0040238,0.0058629,7
-0.0026343,-0.0022872,0.0019568,7
-0.0056245,-0.0019637,-0.00044027,7
-0.0058066,0.00040535,0.0027932,7
-0.0041227,0.00042335,0.0071227,7
-0.0046559,-0.0012077,0.0044267,7
0.0010641,0.0029412,-0.00027999,7
0.00049737,0.0085202,-0.0050437,7
-0.0035763,0.0067977,-0.0045836,7
-0.002434,0.007961899999999999,-0.0049142,7
-0.003714,0.008790299999999999,-0.009894999999999999,7
-0.0022926,0.009369000000000001,-0.015918,7
-0.00018101,0.011582,-0.014503,7
0.00045285,0.0091594,-0.009729,7
0.0019176,0.0047236,-0.010054,7
-0.0015914,0.0052924,-0.010114,7
-0.00095632,0.0051397,-0.011663,7
0.0012609,0.0047588,-0.01474,7
0.0044872,0.0050555,-0.012384,7
0.0027032,0.0033164,-0.010586,7
-0.0045188,0.0011867,-0.0077759,7
-0.0026643,0.0019854,-0.0052891,7
0.00093012,0.004303,-0.0073695,7
0.0068356,0.0030281,-0.0063704,7
0.0082419,0.0026423,-0.00046617,7
0.0020026,0.00061506,0.0039201,7
0.00024732,-0.0052635,0.0027369,7
0.00080498,-0.0065562,-0.00080629,7
0.00038555,-0.0048757,-0.0041994,7
